#Changer LED: 1
#Wavelength [nm]	White Std. spectrum	Dark specetrum	Sample spectrum0[s]	Sample spectrum1203.34[s]
380.024	24.359	-77.9063	3.05431	4.01822	
380.235	24.0726	-39.6535	4.29418	6.61536	
380.446	25.8356	25.442	5.93006	5.77004	
380.656	23.6623	-60.6603	3.38933	6.68887	
380.867	23.9448	-76.9928	4.327	5.07254	
381.078	23.2686	-67.501	2.98804	4.58235	
381.288	24.8582	-34.3529	5.6008	5.08487	
381.499	25.6991	-33.4375	5.34999	4.18764	
381.709	24.5232	7.13715	3.6796	3.75573	
381.92	24.2125	-31.3584	4.08039	3.7231	
382.13	24.7094	-80.0115	6.10598	6.7649	
382.34	24.3	-83.8421	2.68674	3.45474	
382.551	24.6559	-60.6988	3.60115	3.72788	
382.761	23.3842	-31.8152	4.39924	4.77603	
382.972	24.0508	-55.0458	4.60377	4.41182	
383.182	24.168	2.80588	2.07386	3.59402	
383.392	23.3131	-13.9655	2.94952	3.70179	
383.603	24.0415	-30.4323	2.07985	3.90025	
383.813	23.2213	-82.6721	4.99626	3.8696	
384.023	23.1875	-95.36	5.42533	5.29697	
384.233	22.1743	-122.127	3.46453	3.08721	
384.443	24.4986	-60.7927	5.03642	3.70684	
384.654	22.8696	-26.6872	5.77771	4.25186	
384.864	23.3144	-67.7535	4.89381	5.56028	
385.074	22.0316	-21.5732	3.7831	3.8628	
385.284	23.0552	-28.5072	3.86273	3.62517	
385.494	22.4729	-88.5564	4.61621	4.42278	
385.704	23.8658	-64.1171	3.77163	3.42671	
385.914	22.5033	-10.6862	5.40483	4.55409	
386.124	22.6759	-104.446	3.44183	4.5251	
386.334	23.2634	-34.6684	4.57386	4.0405	
386.544	21.6136	49.5644	3.68783	6.28405	
386.754	22.9226	35.3063	3.43177	3.43884	
386.964	22.4129	-65.5554	5.00702	4.65266	
387.173	22.786	-154.496	4.02102	4.53425	
387.383	22.5216	90.1039	3.96457	5.49414	
387.593	23.2688	-57.001	3.00235	2.69952	
387.803	23.0175	-57.1481	3.60121	3.95524	
388.013	22.2591	-11.84	4.7126	3.78294	
388.222	23.4861	-48.3073	3.37273	5.60364	
388.432	22.7069	-111.774	4.0978	3.28692	
388.642	23.542	22.3667	2.74014	5.64634	
388.851	21.7427	29.0255	4.37435	3.82902	
389.061	22.3699	-5.25114	3.60578	3.73648	
389.271	23.2349	80.6521	5.32275	4.57881	
389.48	22.538	-136.103	4.16916	7.22091	
389.69	23.2237	-45.0818	4.5963	4.18896	
389.899	22.8647	-5.66389	4.26738	5.95667	
390.109	22.8668	-34.8049	4.89473	4.85586	
390.318	23.1861	-23.5968	3.36764	3.00408	
390.528	23.7159	-7.40306	4.07836	4.16545	
390.737	22.9443	-36.5438	4.90731	2.9293	
390.947	22.5187	-70.29	3.39059	3.68038	
391.156	22.9696	-71.4786	3.18423	3.61457	
391.365	22.9029	-25.6603	4.97434	2.9737	
391.575	24.1271	-30.832	4.93022	4.44386	
391.784	22.9584	-38.9859	5.48229	4.47154	
391.993	24.1792	23.4076	4.75609	4.62142	
392.202	23.6081	-33.4651	3.43865	3.77939	
392.412	23.6562	16.38	3.21623	5.54334	
392.621	22.8156	-115.073	4.26952	4.183	
392.83	23.5019	-16.886	4.1733	4.45271	
393.039	23.0136	-74.0558	5.83208	3.49347	
393.248	23.9109	1.72954	2.37523	4.61095	
393.457	23.9854	-33.917	5.73052	5.35019	
393.666	22.6484	-98.3579	2.80973	4.95097	
393.876	24.5296	-115.714	5.04691	4.7395	
394.085	23.8252	-76.4305	5.17151	5.89774	
394.294	24.2637	12.6646	4.13304	2.75653	
394.503	24.955	-4.39659	5.56901	6.68282	
394.711	25.482	-36.3403	4.07011	4.69009	
394.92	26.2543	-29.6634	4.32466	5.41143	
395.129	25.3377	34.9333	4.08528	5.06754	
395.338	23.9991	72.2704	3.91024	7.0067	
395.547	25.6211	-122.133	6.32356	6.01927	
395.756	25.7831	4.88821	5.02034	6.39556	
395.965	26.4282	-22.958	5.6512	3.17291	
396.173	25.8691	-53.6906	4.34317	5.94472	
396.382	26.5047	-74.1391	6.25475	4.09883	
396.591	26.8665	-38.558	3.56092	5.72903	
396.8	27.5299	-45.6445	5.37471	5.88187	
397.008	26.6898	58.8745	3.13046	6.10392	
397.217	27.4943	117.718	6.0595	5.3853	
397.426	26.8685	15.6161	5.26246	6.56648	
397.634	27.5844	-83.5486	7.27186	7.14616	
397.843	27.3407	-88.6581	4.07767	5.49262	
398.051	28.6664	-67.9554	7.00775	5.24449	
398.26	28.4866	-40.0902	5.72975	6.54657	
398.468	28.8134	-66.3467	5.51475	6.92894	
398.677	29.107	-44.8986	6.90259	5.81414	
398.885	28.5973	-32.7555	4.99824	7.57622	
399.094	31.1426	-108.881	6.39617	9.14659	
399.302	30.8994	-27.7104	8.44335	7.14111	
399.51	30.8661	-46.0076	5.30044	7.70438	
399.719	30.4406	-55.767	7.41988	6.90604	
399.927	30.2494	52.0912	4.72415	6.14919	
400.135	31.3447	33.8121	7.92604	8.01742	
400.344	32.6125	-53.4706	7.70526	9.53331	
400.552	31.8084	-81.8531	7.46769	8.6304	
400.76	31.9238	-48.8117	7.95585	9.36576	
400.968	33.0679	6.40496	7.48465	8.67414	
401.176	33.2181	-125.049	7.58049	7.82356	
401.385	34.6712	-82.2893	8.64038	8.03388	
401.593	34.2643	64.8122	7.58771	10.1403	
401.801	35.5129	-73.0027	8.23313	8.0046	
402.009	36.3589	29.5121	9.3803	8.896	
402.217	36.214	40.0456	10.5332	9.19836	
402.425	35.9042	-88.63	10.2292	11.4315	
402.633	35.0378	-109.237	6.33272	8.69953	
402.841	38.4554	-88.4083	10.5516	10.612	
403.049	37.8901	-59.1469	11.0498	10.6585	
403.257	39.0434	-16.2606	10.5176	10.1267	
403.465	39.8921	-119.623	11.0782	12.4222	
403.673	39.1184	-9.84674	12.6963	12.935	
403.88	41.5436	-0.443085	12.3266	12.1494	
404.088	41.848	62.6254	14.6037	13.6858	
404.296	41.277	30.5329	13.8298	12.6203	
404.504	43.236	10.0814	11.4782	14.1081	
404.712	45.655	-62.6672	13.7985	11.695	
404.919	45.6841	44.9337	13.0933	14.0822	
405.127	46.5112	-13.9047	16.6248	13.9597	
405.335	47.5438	-14.2502	13.9393	12.5574	
405.542	49.2237	0.864179	14.8207	15.7137	
405.75	48.5515	64.8785	17.2007	15.6539	
405.958	50.3481	1.27744	15.6898	16.0588	
406.165	51.3623	142.958	15.8149	16.0425	
406.373	52.985	6.3735	17.9676	16.2963	
406.58	55.0068	161.041	18.4031	19.1338	
406.788	55.1124	-60.7578	18.413	18.863	
406.995	55.6759	-75.2264	17.8302	19.9035	
407.203	58.0449	-22.664	19.6085	18.2935	
407.41	58.3435	-1.25957	22.1713	21.0517	
407.617	61.1505	61.7345	21.0676	20.2333	
407.825	61.2032	15.428	21.0209	19.4643	
408.032	63.7831	-149.956	23.6212	20.702	
408.239	64.9258	-97.8492	23.2673	23.7058	
408.447	67.4156	-62.7256	24.9836	24.191	
408.654	68.1357	-72.084	27.1817	27.1817	
408.861	69.1628	-15.9117	26.8241	25.6545	
409.068	72.1256	-51.1875	27.1592	28.2696	
409.276	74.3074	-76.8558	28.9733	28.9193	
409.483	76.0349	-34.3921	29.7256	29.9144	
409.69	77.4523	6.43291	31.2613	28.3933	
409.897	79.5389	9.29287	31.3129	31.286	
410.104	81.6531	-62.7978	32.0655	30.1189	
410.311	83.5303	34.7776	33.6104	33.2106	
410.518	87.465	-79.6867	35.3476	33.3917	
410.725	89.0097	32.8172	36.4205	34.549	
410.932	92.0061	-22.5524	36.1393	33.4752	
411.139	93.2782	-47.4256	39.0629	37.403	
411.346	96.4893	-18.0618	38.4743	38.0293	
411.553	98.5011	-13.7626	41.4426	38.3755	
411.76	100.912	-72.2024	41.5391	39.6658	
411.967	105.663	-21.0391	44.5458	41.6107	
412.174	107.443	-29.7894	46.4224	44.3849	
412.381	109.925	15.0942	46.062	43.7914	
412.587	112.476	23.7614	50.7703	46.1968	
412.794	115.21	-106.954	50.8353	46.9367	
413.001	119.917	62.3372	53.8624	50.6245	
413.208	123.913	-26.745	54.3483	51.5974	
413.414	125.694	-19.0434	55.0786	52.1586	
413.621	129.116	-61.9323	58.2088	54.4599	
413.828	132.198	11.7237	61.3161	55.2904	
414.034	136.927	-51.9638	60.9785	58.8291	
414.241	140.078	-81.551	62.4693	58.4234	
414.447	143.989	-5.27873	65.1822	59.3254	
414.654	146.688	-23.808	65.8663	61.1047	
414.86	151.912	-100.649	71.2893	66.3956	
415.067	154.76	57.6681	73.1686	67.4017	
415.273	162.326	17.3667	74.6166	69.1801	
415.48	164.434	-66.6686	77.9232	71.4447	
415.686	170.749	-37.3671	81.3243	72.945	
415.893	175.421	-63.5912	82.3023	76.2065	
416.099	180.259	112.544	86.2615	78.7084	
416.305	185.439	-35.8836	87.7977	78.4554	
416.512	190.85	1.19209e-07	92.593	84.2745	
416.718	196.329	-56.9913	94.7918	85.1297	
416.924	200.667	20.7005	96.3613	88.0309	
417.131	207.045	-10.5455	100.493	90.5756	
417.337	212.07	117.35	104.911	95.2954	
417.543	217.178	-17.7095	106.382	94.8021	
417.749	222.637	51.498	110.757	99.4551	
417.955	229.149	-12.7785	114.368	101.314	
418.161	235.874	-41.8443	116.106	104.143	
418.367	240.301	38.4771	119.659	107.26	
418.574	246.607	-82.8148	121.846	110.126	
418.78	255.406	33.3419	127.74	112.079	
418.986	258.882	92.0617	130.373	118.375	
419.192	266.27	-16.6334	134.176	120.34	
419.398	274.395	11.3599	137.099	123.947	
419.604	281.917	-37.6082	140.756	126.599	
419.809	289.017	12.1369	145.137	130.219	
420.015	296.311	-9.46973	148.773	135.642	
420.221	304.995	-3.04599	153.373	137.483	
420.427	312.795	-22.1478	160.767	142.362	
420.633	320.048	27.4805	162.7	146.135	
420.839	330.137	1.14276	168.768	149.621	
421.044	338.554	6.87047	174.228	155.499	
421.25	346.696	-18.6179	176.482	155.104	
421.456	354.069	4.18863	184.31	164.687	
421.662	364.439	-70.7656	190.845	167.486	
421.867	370.326	-62.6273	193.132	171.594	
422.073	382.971	62.4093	200.036	176.4	
422.278	393.188	-13.0581	206.165	180.1	
422.484	400.263	-10.3558	209.435	186.959	
422.69	410.738	-40.5104	214.415	191.153	
422.895	422.257	-52.4747	222.983	194.588	
423.101	431.238	2.30006	226.144	201.023	
423.306	440.852	-5.37811	232.931	206.194	
423.512	453.706	12.3769	241.076	210.882	
423.717	464.319	-46.1672	246.918	216.883	
423.922	477.027	104.659	251.896	222.082	
424.128	482.489	-27.6785	258.527	227.517	
424.333	501.494	-18.2181	266.121	234.13	
424.539	507.574	68.271	271.058	238.967	
424.744	520.38	192.537	280.677	244.455	
424.949	536.276	-24.7638	287.671	250.267	
425.154	548.442	5.03513	292.074	257.293	
425.36	560.388	-10.8374	301.43	257.255	
425.565	577.101	-6.55651e-07	308.827	268.888	
425.77	587.789	-9.31421	316.251	279.382	
425.975	604.067	-21.817	325.009	284.232	
426.18	620.526	-69.0201	334.936	292.588	
426.385	637.544	58.8536	344.035	302.123	
426.591	650.041	-27.38	355.408	306.672	
426.796	666.348	8.58968	361.706	317.066	
427.001	680.343	33.1741	371.857	319.767	
427.206	697.731	26.2237	380.445	330.972	
427.411	715.258	25.422	389.752	337.969	
427.616	732.517	-48.5702	402.015	347.569	
427.821	748.194	12.9018	408.752	356.18	
428.026	762.99	68.8093	418.651	363.681	
428.23	781.906	79.6151	429.609	370.288	
428.435	799.12	-76.6821	437.067	380.6	
428.64	815.998	28.2835	448.036	386.097	
428.845	838.02	82.8803	459.846	395.194	
429.05	848.628	-60.8689	469.299	405.194	
429.254	873.861	-31.2979	481.895	419.48	
429.459	886.366	-19.5569	494.054	421.348	
429.664	916.509	18.1975	506.475	437.041	
429.869	929.593	-9.2118	519.722	444.825	
430.073	944.219	-14.5101	524.296	452.789	
430.278	965.547	67.2497	537.99	461.445	
430.483	987.693	21.6097	547.125	473.298	
430.687	1007.27	-88.7997	561.028	482.304	
430.892	1029.62	17.7626	572.78	494.347	
431.096	1049.83	-60.2077	584.885	502.526	
431.301	1069.58	70.1156	601.245	510.957	
431.505	1090.02	-35.1004	613.123	523.032	
431.71	1122.1	-87.8865	625.49	539	
431.914	1142.09	-20.1252	640.35	547.799	
432.118	1171.22	-37.2319	654.313	564.858	
432.323	1192.21	-38.1925	671.842	572.517	
432.527	1215.63	59.8099	679.766	587.466	
432.732	1248.62	-19.5373	702.494	598.812	
432.936	1271.37	55.3099	716.568	612.224	
433.14	1303.05	-20.4691	733.896	628.359	
433.344	1328.72	-45.1349	749.851	636.965	
433.549	1361.61	-67.6136	769.581	659.048	
433.753	1388.78	47.3003	785.524	671.426	
433.957	1422.08	82.5836	806.429	684.153	
434.161	1451.56	74.5181	823.232	698.003	
434.365	1479.2	37.8867	840.063	712.94	
434.57	1503.07	126.435	851.198	721.764	
434.774	1532.21	104.028	871.282	737.82	
434.978	1564.83	154.977	885.108	755.058	
435.182	1596.88	105.93	907.868	773.152	
435.386	1629.13	138.442	929.922	790.898	
435.59	1661.16	136.354	947.389	801.505	
435.794	1691.31	181.335	968.481	817.566	
435.998	1726.51	89.9738	984.147	834.006	
436.201	1772.78	161.764	1009.7	854.68	
436.405	1792.57	119.201	1027.54	868.029	
436.609	1833.17	70.7577	1048.21	888.655	
436.813	1869.81	-40.4967	1068.74	908.13	
437.017	1902.59	-42.321	1089.45	923.944	
437.221	1945	36.5118	1115.91	939.516	
437.424	1978.39	46.2516	1135.32	957.181	
437.628	2015.91	-11.8691	1155.16	977.935	
437.832	2056.41	40.9457	1175.08	995.893	
438.036	2086.45	60.599	1194.88	1008.62	
438.239	2132.3	33.7012	1222.42	1033.2	
438.443	2167.14	-13.7935	1245.6	1053.14	
438.646	2196.14	-59.7371	1258.61	1065.33	
438.85	2235.36	65.2537	1280.8	1082.69	
439.054	2261.08	8.64267e-07	1295.51	1097.06	
439.257	2298.49	-72.0109	1316.66	1114.37	
439.461	2327.24	54.3305	1332.46	1130.57	
439.664	2359.96	36.1525	1352.91	1148.14	
439.868	2390.11	-49.1964	1365.25	1161.01	
440.071	2411.49	-36.5137	1380.59	1167.83	
440.274	2434.71	30.9005	1389.78	1186.06	
440.478	2459.95	17.5016	1402.96	1193.61	
440.681	2487.39	-11.662	1417.64	1210.1	
440.885	2509.27	12.5846	1428.2	1223.28	
441.088	2523.5	-47.5398	1432.53	1225.65	
441.291	2543.81	-22.7799	1443.07	1236.9	
441.494	2555.14	49.4762	1446.79	1242.22	
441.698	2564.85	-4.13356	1452.8	1251.63	
441.901	2590.85	21.0535	1467.87	1260.27	
442.104	2598.66	-62.9626	1468.25	1266.24	
442.307	2606.29	31.0947	1471.81	1272.33	
442.51	2613.2	-50.6974	1474.53	1272.88	
442.713	2619.66	-50.0271	1473.69	1274.78	
442.916	2621.68	69.0984	1469.41	1275.49	
443.12	2623.09	36.9148	1466.29	1280.84	
443.323	2611.63	24.2123	1454.88	1269.4	
443.526	2606.09	-47.0368	1455.39	1269.82	
443.729	2602.12	64.6537	1452.03	1271.08	
443.932	2593.62	-25.3873	1437.58	1262.33	
444.134	2585.65	-67.0229	1431.69	1258.73	
444.337	2568.96	-14.0584	1417.8	1251.51	
444.54	2550.01	9.67181	1406.6	1243.88	
444.743	2524.17	2.48572	1392.59	1229.36	
444.946	2504.88	23.8782	1376.03	1220.21	
445.149	2493.02	-1.86666	1371.43	1212.99	
445.352	2467.82	-13.6554	1349.84	1204.56	
445.554	2445.75	-13.965	1335.47	1195.28	
445.757	2423.14	-20.1366	1321.78	1176.71	
445.96	2394.26	-35.0265	1304.24	1168.06	
446.162	2373.26	-57.761	1290.77	1155.48	
446.365	2337.14	28.4587	1267.59	1137.19	
446.568	2311.73	-25.3967	1249.85	1121.9	
446.77	2286.34	-16.1164	1234.9	1108.74	
446.973	2248.22	-46.3631	1209.25	1092.91	
447.175	2220.21	-73.5934	1191.88	1074.4	
447.378	2183.35	43.5467	1174.52	1057.43	
447.58	2153.37	77.677	1158.75	1046.89	
447.783	2126.78	-31.0489	1140.15	1032.43	
447.985	2087.39	16.1061	1119.78	1013.44	
448.188	2062.58	21.1141	1105.67	1000.86	
448.39	2021.64	16.4177	1080.11	979.357	
448.593	1993.47	15.5139	1063.21	967.124	
448.795	1961.57	-17.3704	1046.63	950.643	
448.997	1926.65	64.1789	1031.52	935.782	
449.2	1894.65	-39.6991	1016.62	920.723	
449.402	1876.12	-24.2994	1007.8	909.525	
449.604	1840.37	-6.2107	984.079	892.368	
449.806	1825.76	-34.9892	977.362	886.369	
450.009	1796.61	9.65771	962.136	868.446	
450.211	1764.68	83.096	946.919	855.295	
450.413	1743.5	18.7028	931.723	844.692	
450.615	1723.71	-23.9993	920.648	834.645	
450.817	1702.13	-7.48385	912.957	824.003	
451.019	1684.75	-10.9374	900.156	818.928	
451.221	1665	74.9011	891.078	801.384	
451.423	1647.43	-56.64	885.442	797.489	
451.625	1628.08	72.004	871.652	788.878	
451.827	1607.08	-25.5717	863.575	775.425	
452.029	1596.11	49.5633	862.013	775.288	
452.231	1582.72	-18.8524	852.106	766.139	
452.433	1566.2	109.56	838.643	755.327	
452.635	1548.74	11.6126	832.569	750.946	
452.837	1535.81	-10.3657	827.503	740.054	
453.039	1523.64	-15.7533	824.99	734.944	
453.24	1503.62	-15.0856	808.785	727.155	
453.442	1492.46	25.8409	806.196	717.581	
453.644	1479.67	-9.44979	796.088	713.434	
453.846	1469.81	19.2473	794.429	710.161	
454.047	1454.89	38.4821	780.795	700.277	
454.249	1452.28	-76.7428	784.609	699.495	
454.451	1439.94	50.364	776.814	692.621	
454.652	1431.75	72.2954	776.203	689.089	
454.854	1421.69	-9.83283	768.604	684.401	
455.056	1418.01	-10.5106	767.461	682.548	
455.257	1404.79	-2.85998	758.114	677.78	
455.459	1400.62	-35.0874	756.688	671.266	
455.66	1397.78	40.349	753.935	673.45	
455.862	1380.57	14.3595	746.162	664.473	
456.063	1370.76	-31.6497	739.425	659.522	
456.265	1362.58	18.8611	734.556	654.977	
456.466	1347.27	-9.55605	723.499	645.352	
456.667	1344.32	-29.1172	725.649	647.001	
456.869	1330.59	3.51084	714.07	639.045	
457.07	1319.67	-29.9769	709.563	627.839	
457.271	1312.8	29.6624	702.005	628.731	
457.473	1300.76	86.2194	699.422	621.974	
457.674	1293.24	-40.299	695.108	620.011	
457.875	1283.78	-50.8081	689.595	615.993	
458.076	1275.12	57.2616	684.727	609.977	
458.277	1267.11	-70.7041	676.707	607.667	
458.479	1253.59	-75.6919	667.238	600.191	
458.68	1246.44	-11.2191	665.27	598.254	
458.881	1237.97	10.5968	659.003	592.425	
459.082	1225.32	8.64807	654.121	583.954	
459.283	1217.17	11.2092	649.278	579.738	
459.484	1209.25	-34.0589	643.038	577.341	
459.685	1195.99	-9.29256	635.449	572.131	
459.886	1186.12	29.4563	629.199	566.402	
460.087	1179.56	39.4434	625.88	565.422	
460.288	1165.82	-10.5467	620.146	556.311	
460.489	1161.55	-19.8973	615.716	556.987	
460.69	1151.36	43.1795	607.182	548.16	
460.89	1138.58	-82.8616	603.971	543.547	
461.091	1127.75	36.7387	596.236	541.117	
461.292	1118.9	49.8549	589.415	531.848	
461.493	1109.65	3.19846	586.834	527.151	
461.694	1100.58	-4.47777	581.32	525.475	
461.894	1088.33	64.4259	573.777	517.835	
462.095	1078.76	-0.318051	566.345	513.527	
462.296	1063.85	-18.027	559.155	507.878	
462.496	1056.23	-47.3259	555.301	503.369	
462.697	1046.01	-8.19632	550.843	498.744	
462.898	1039.81	3.14413	547.108	496.257	
463.098	1027.72	14.7165	540.511	486.071	
463.299	1021.73	-61.6236	537.981	484.157	
463.499	1011.56	15.22	529.111	481.401	
463.7	1001.75	-18.9486	527.608	477.824	
463.9	993.69	-27.3266	523.997	470.855	
464.101	986.269	90.2633	516.143	465.571	
464.301	976.945	-49.5936	513.632	464.285	
464.501	970.495	57.8559	507.142	461.165	
464.702	963.297	-49.3624	504.529	459.173	
464.902	958.013	15.3117	502.332	455.804	
465.103	953.512	71.0834	501.096	451.47	
465.303	946.803	-10.967	495.869	449.929	
465.503	943.592	-82.7723	496.739	446.407	
465.703	937.062	28.8013	490.098	443.834	
465.904	935.523	-66.9668	489.427	441.146	
466.104	932.608	-22.9982	489.347	438.933	
466.304	929.123	2.71733	489.005	441.865	
466.504	927.014	-12.0506	484.145	436.866	
466.704	917.65	0.599434	480.762	432.568	
466.904	916.21	41.359	480.25	431.299	
467.104	914.182	-2.38696	478.5	426.643	
467.304	908.807	-22.3218	474.782	428.392	
467.504	904.123	68.4506	474.822	427.43	
467.704	904.715	-5.62402	472.388	426.133	
467.904	899.01	-49.3107	470.749	422.006	
468.104	901.653	17.0283	473.907	425.503	
468.304	901.707	-22.2271	472.576	420.693	
468.504	898.504	-40.773	470.016	422.836	
468.704	898.833	-20.8932	469.305	420.341	
468.904	898.094	-59.6321	469.802	420.977	
469.104	897.395	-33.0915	466.968	415.575	
469.304	897.859	-36.7488	469.937	419.292	
469.503	897.189	28.9248	467.846	417.405	
469.703	898.173	-47.4785	467.339	420.49	
469.903	897.982	-23.9427	468.467	418.207	
470.103	897.733	-31.1782	465.039	417.081	
470.302	897.273	-17.5295	468.372	419.138	
470.502	899.317	-24.8493	468.06	417.119	
470.701	903.443	15.2295	470.246	423.185	
470.901	903.786	66.3667	467.709	422.677	
471.101	902.344	-47.2194	469.326	417.059	
471.3	908.543	8.94208	467.201	419.957	
471.5	907.841	23.9245	471.858	421.821	
471.699	908.545	-41.0632	470.164	420.001	
471.899	908.956	-13.8275	472.15	421.431	
472.098	911.906	20.1684	471.428	423.963	
472.298	914.058	-11.0355	475.96	424.792	
472.497	916.073	51.0512	471.993	423.138	
472.696	918.856	-17.0447	470.539	423.932	
472.896	920.283	-18.9414	474.651	423.043	
473.095	922.292	-9.84251	472.98	425.991	
473.294	920.618	-13.6396	472.798	425.75	
473.494	922.867	-7.34854	475.839	426.703	
473.693	924.642	0.271701	475.498	426.158	
473.892	932.123	-31.7723	477.509	428.285	
474.091	931.422	71.549	477.539	429.28	
474.29	935.212	-41.1608	479.601	428.205	
474.49	939.117	-29.735	479.506	429.93	
474.689	936.157	-2.68651	477.66	429.177	
474.888	937.851	-23.585	477.576	429.638	
475.087	943.09	44.2307	479.672	432.564	
475.286	945.42	-17.3909	480.827	431.882	
475.485	944.657	11.4473	484.21	430.47	
475.684	947.561	-21.5556	480.606	431.64	
475.883	948.753	-54.932	482.519	429.214	
476.082	950.416	-11.642	481.476	433.726	
476.281	953.431	11.1042	482.272	432.056	
476.48	954.552	-5.00361	481.807	434.37	
476.678	955.12	-19.1995	481.582	430.856	
476.877	955.975	39.8729	480.229	435.425	
477.076	964.145	-1.57654	487.194	432.593	
477.275	960.808	44.2778	483.713	434.702	
477.474	967.587	9.17	487.692	435.502	
477.672	968.669	49.4435	487.114	436.066	
477.871	973.048	55.8322	488.823	438.478	
478.07	975.194	25.9285	488.304	439.59	
478.269	983.22	-49.9233	489.439	442.371	
478.467	978.269	26.1248	488.429	439.524	
478.666	985.885	-17.0089	492.914	441.538	
478.864	984.909	16.4337	490.273	440.729	
479.063	990.999	-13.0856	489.742	442.738	
479.262	993.739	5.76026	494.721	446.038	
479.46	997.013	57.8384	494.027	444.86	
479.659	1000.62	1.83396	495.546	449.173	
479.857	1002.67	-3.40175	497.323	447.989	
480.055	1003.8	-11.7443	495.661	445.239	
480.254	1012.3	7.05737	500.474	449.173	
480.452	1014.25	43.947	499.973	449.748	
480.651	1016.31	56.5292	499.853	447.996	
480.849	1021.67	-17.5048	501.902	453.377	
481.047	1018.62	30.444	503.486	451.515	
481.246	1026	8.07094	503.007	453.523	
481.444	1029.9	-24.9559	504.088	454.835	
481.642	1037.22	-0.782757	507.402	457.845	
481.84	1040.96	15.8926	505.266	458.943	
482.039	1044.18	45.5779	504.246	457.661	
482.237	1043.19	5.46823	509.318	459.844	
482.435	1049.66	-73.3531	511.239	460.475	
482.633	1053.66	113.047	509.806	459.469	
482.831	1059.39	47.8688	513.354	461.073	
483.029	1065.67	32.5133	512.869	463.907	
483.227	1067.27	-40.6653	515.619	467.03	
483.425	1069.86	-63.209	517.878	465.51	
483.623	1074.6	-7.59925	517.379	469.268	
483.821	1081.66	49.4808	520.642	470.898	
484.019	1086.26	-5.25982	520.954	470.722	
484.217	1087.38	-4.99022	519.119	469.935	
484.415	1094.46	0.528582	522.003	472.986	
484.613	1098.37	17.1943	524.381	475.866	
484.811	1098.65	20.4849	524.2	473.933	
485.008	1103.47	83.3548	524.585	476.08	
485.206	1107.6	31.3465	525.106	479.745	
485.404	1112.45	-13.192	529.418	481.17	
485.602	1116.38	94.9291	525.447	481.164	
485.799	1124.78	22.7971	530.823	484.999	
485.997	1129.67	128.651	528.904	483.279	
486.195	1132.15	30.7427	531.677	483.531	
486.392	1140.13	40.4656	534.217	486.191	
486.59	1142.23	14.9017	536.552	485.78	
486.788	1149.84	24.5243	537.451	490.393	
486.985	1149.2	56.4461	532.574	490.63	
487.183	1155.5	39.7894	540.192	490.914	
487.38	1160.51	62.7137	537.516	491.758	
487.578	1164.22	3.2091	538.2	493.968	
487.775	1167.37	46.2728	540.684	494.447	
487.973	1169.72	18.9832	541.784	493.372	
488.17	1180.1	-51.277	545.977	495.989	
488.367	1183.3	41.8369	541.632	495.415	
488.565	1191.32	18.3062	543.355	499.42	
488.762	1191.68	14.5288	545.089	500.803	
488.959	1197.74	2.42208	547.925	501.457	
489.157	1202.96	135.895	544.186	501.62	
489.354	1206.32	-5.38818	546.999	503.445	
489.551	1207.82	-10.2282	549.756	506.672	
489.749	1215.29	-13.4926	547.891	504.913	
489.946	1221.14	-12.9797	549.706	505.376	
490.143	1223.79	24.0409	548.432	505.915	
490.34	1227.49	49.745	549.777	509.116	
490.537	1236.42	26.3566	553.305	510.065	
490.734	1240.2	58.9583	555.336	511.321	
490.931	1242.61	40.2292	555.868	512.667	
491.128	1250.28	43.3916	555.672	514.137	
491.325	1252.34	-37.3725	555.681	516.508	
491.522	1258.39	-7.66833	555.901	517.852	
491.719	1261.83	11.8002	558.725	516.391	
491.916	1272.96	-38.8579	560.544	520.529	
492.113	1272.62	-30.4981	556.337	518.146	
492.31	1283.07	20.4449	563.118	520.442	
492.507	1285.03	27.0794	562.195	522.921	
492.704	1287.57	51.0779	562.095	523.349	
492.901	1291.25	-18.5203	560.934	521.572	
493.097	1301.24	-4.76837e-07	561.66	526.193	
493.294	1305.82	-39.4033	565.963	528.594	
493.491	1308.49	-47.1622	564.484	530.046	
493.688	1308.9	15.4974	564.456	523.074	
493.884	1315.44	28.4959	564.148	527.814	
494.081	1317.27	-4.9667	562.286	529.561	
494.278	1322.73	11.9066	566.125	531.587	
494.474	1325.28	53.7964	564.748	531.22	
494.671	1326.07	-14.2941	565.224	528.646	
494.867	1335.09	23.6969	566.258	531.282	
495.064	1337.55	20.1082	565.682	531.231	
495.26	1340.32	-29.4408	564.723	529.137	
495.457	1348.83	-4.41674	568.981	534.732	
495.653	1352.99	2.48263	565.735	531.934	
495.85	1354.15	-6.88915	565.504	529.643	
496.046	1362.8	-27.8712	567.311	533.351	
496.243	1371.02	-1.1047	566.928	536.273	
496.439	1372.4	18.8038	570.031	537.419	
496.635	1375.9	20.1365	567.655	538.232	
496.832	1379.95	-6.33627	569.57	540.001	
497.028	1387.76	29.2186	571.613	541.292	
497.224	1392.09	37.5049	573.872	540.963	
497.42	1397.44	-31.368	570.764	543.321	
497.617	1404.34	27.0142	572.934	544.523	
497.813	1405.51	13.7459	574.381	544.158	
498.009	1407	-57.8678	568.536	544.639	
498.205	1417.03	-40.9135	571.71	546.759	
498.401	1422.93	-38.4157	573.671	546.798	
498.597	1426.28	-20.8189	574.103	549.084	
498.793	1434.4	107.351	577.095	549.401	
498.989	1435.43	-23.535	574.176	547.284	
499.185	1440.08	-17.7606	577.041	550.355	
499.381	1450.86	23.0006	576.783	549.857	
499.577	1456.22	6.8322	574.457	551.373	
499.773	1459.54	-35.5134	576.104	553.193	
499.969	1466.16	-25.6526	578.295	557.955	
500.165	1466.69	28.8711	580.642	552.842	
500.361	1473.91	-4.61822	577.133	554.042	
500.557	1478.28	-8.93092	577.751	555	
500.753	1478.58	-49.4601	578.352	555.109	
500.948	1487.95	-23.2365	574.277	557.525	
501.144	1490.71	-41.0117	578.578	557.119	
501.34	1494.62	10.761	577.473	555.879	
501.536	1501.8	-15.8499	578.913	556.472	
501.731	1505.29	30.5503	577.113	560.265	
501.927	1507.27	64.4677	576.764	554.704	
502.123	1511.34	15.2186	574.726	557.549	
502.318	1516.8	-49.254	580.621	559.925	
502.514	1518.56	-32.924	574.676	560.32	
502.709	1527.05	-10.0963	578.624	557.351	
502.905	1529.34	-23.5422	573.541	562.537	
503.1	1533.58	10.5475	576.716	557.906	
503.296	1542.01	2.90029	577.06	560.098	
503.491	1540.38	-24.1138	574.537	559.09	
503.687	1547.91	23.0699	576.865	562.638	
503.882	1548	-35.7904	574.531	560.198	
504.078	1559.27	-59.2706	575.59	561.647	
504.273	1558.64	-10.1405	576.081	562.145	
504.468	1564.94	-35.6055	573.328	562.932	
504.664	1576.84	40.7726	575.712	564.216	
504.859	1575.25	63.9033	577.276	561.563	
505.054	1577.03	-19.8748	574.978	564.619	
505.249	1580.39	24.4273	574.291	564.828	
505.445	1586.81	45.5924	571.978	563.013	
505.64	1591.46	45.002	573.342	563.012	
505.835	1593.54	-18.8619	570.653	564.281	
506.03	1602.14	-26.5175	575.537	567.157	
506.225	1607.24	37.5924	571.241	565.788	
506.42	1613.28	-3.55076	574.884	568.848	
506.615	1614.82	-20.7204	571.99	565.285	
506.81	1617.69	3.52348	570.441	565.743	
507.005	1623.29	10.2952	568.845	565.531	
507.2	1626.17	-23.0259	570.047	564.324	
507.395	1633.45	3.00116	571.678	569.244	
507.59	1633.53	50.7581	567.517	566.239	
507.785	1639.56	-18.3931	567.693	565.738	
507.98	1641.95	0.743454	565.755	567.688	
508.175	1643.76	-7.17199	567.692	566.323	
508.37	1649.14	18.2938	569.93	566.964	
508.564	1653.09	17.7465	567.644	565.623	
508.759	1662.4	35.5435	567.808	568.812	
508.954	1661.08	7.60783	564.168	567.849	
509.149	1666.68	26.0432	565.843	566.58	
509.343	1669.28	-20.8104	564.301	564.79	
509.538	1674.1	-31.8076	563.602	565.885	
509.733	1677.84	32.2067	565.627	563.643	
509.927	1684.51	-17.7786	562.167	564.911	
510.122	1688.43	-35.242	561.873	566.799	
510.317	1691.2	-47.2631	562.034	567.075	
510.511	1695.45	-30.4941	563.282	567.977	
510.706	1698.32	23.8635	558.688	566.337	
510.9	1703.83	-0.72288	560.823	568.646	
511.095	1704.74	-27.1104	557.308	566.409	
511.289	1704.55	-9.08135	555.898	565.585	
511.484	1707.57	-33.6093	553.637	564.014	
511.678	1711.56	15.2285	556.962	564.037	
511.872	1712.87	-39.6281	555.154	563.111	
512.067	1713.89	-4.02655	551.764	561.98	
512.261	1722.7	3.55771	553.486	560.696	
512.455	1722.92	-45.8443	549.579	564.341	
512.65	1727.92	-14.8679	549.062	563.521	
512.844	1732.78	-20.2853	550.343	561.712	
513.038	1733.32	7.05642	551.18	560.087	
513.232	1736.31	5.39863	549.868	561.041	
513.427	1744.33	-41.8531	546.95	562.469	
513.621	1747.35	12.1811	548.118	561.127	
513.815	1747.3	-15.9162	544.742	562.499	
514.009	1754.97	-51.1317	547.075	561.585	
514.203	1756.12	-24.0728	544.807	561.463	
514.397	1764.02	14.5024	544.014	559.857	
514.591	1765.31	23.5992	543.982	560.244	
514.785	1774.55	-55.8842	545.363	560.234	
514.979	1773.54	36.1851	543.272	561.855	
515.173	1776.7	-6.75187	541.498	561.661	
515.367	1781.94	-18.1764	541.586	560.803	
515.561	1783.99	1.86237	541.156	560.742	
515.755	1788.85	-41.6912	539.221	560.711	
515.949	1789.23	24.6143	537.39	556.369	
516.142	1793.33	28.0845	536.6	559.857	
516.336	1800.91	-42.5678	536.722	558.122	
516.53	1797.35	-18.9803	534.632	556.59	
516.724	1800.45	-3.47495	532.746	558.013	
516.917	1806.94	-22.0022	536.651	555.781	
517.111	1812.86	-44.5334	534.656	554.047	
517.305	1820.35	8.12504	533.606	559.343	
517.499	1818.27	-21.5288	531.209	557.09	
517.692	1817.84	11.3215	528.138	554.093	
517.886	1828.27	-13.9257	529.421	557.536	
518.079	1828.11	-16.2134	528.943	554.915	
518.273	1833.06	62.7617	528.66	553.811	
518.466	1834.58	7.1677	526.963	552.412	
518.66	1837.38	27.7378	527.968	554.396	
518.853	1843.44	-17.1329	528.543	554.011	
519.047	1845.4	26.5852	524.219	553.332	
519.24	1847.47	28.4902	523.082	550.692	
519.434	1852.54	-7.87851	525.633	549.438	
519.627	1857.8	37.7986	519.29	550.658	
519.82	1855.25	-53.4848	518.471	553.155	
520.014	1862.09	18.5614	520.5	551.064	
520.207	1865.14	-36.6386	517.864	548.165	
520.4	1866.42	-1.16058	517.183	549.633	
520.594	1867.65	0.696056	516.278	548.126	
520.787	1876.59	-51.4088	513.579	549.62	
520.98	1875.43	18.8096	515.172	546.088	
521.173	1878.85	0.465646	515.088	546.97	
521.366	1882.73	-12.1097	513.198	545.195	
521.56	1886.62	-9.08638	511.467	545.793	
521.753	1888.32	2.56612	508.624	543.586	
521.946	1889.84	14.7046	509.905	542.535	
522.139	1894.19	-1.63524	506.434	543.438	
522.332	1898.28	20.3496	508.184	543.113	
522.525	1899.63	3.97865	507.296	543.556	
522.718	1907.98	1.40881	508.601	542.053	
522.911	1904.37	-13.1136	503.555	540.367	
523.104	1912.86	38.973	502.427	542.12	
523.297	1917.85	-37.2009	502.172	539.467	
523.489	1915.44	-13.3979	503.062	543.052	
523.682	1918.72	-35.5392	497.834	541.768	
523.875	1921.84	28.709	500.592	538.87	
524.068	1921.07	-33.1842	496.946	537.583	
524.261	1925.02	-4.95258	495.168	537.666	
524.453	1927.89	-36.1115	494.92	535.657	
524.646	1933.6	-4.02888	494.187	538.205	
524.839	1940.58	-40.8682	490.888	534.243	
525.031	1941.08	1.66771	494.455	534.433	
525.224	1945.61	-12.1719	491.494	536.346	
525.417	1943.27	-6.68018	488.46	532.485	
525.609	1951.52	5.98718	488.649	532.076	
525.802	1951.96	-5.76252	488.974	535.122	
525.995	1955.11	-74.1554	488.976	533.117	
526.187	1952.71	45.4299	484.338	534.815	
526.38	1961.96	-21.2142	481.888	531.774	
526.572	1962.38	55.4491	483.117	532.523	
526.765	1971.24	-19.3228	480.236	528.543	
526.957	1967.33	-10.1526	482.652	528.661	
527.149	1971.07	-28.7867	478.612	526.606	
527.342	1973.21	19.3911	476.929	527.863	
527.534	1972.8	-58.5191	476.568	525.843	
527.726	1979.19	-18.5036	477.131	525.516	
527.919	1977.53	-20.4394	473.558	523.342	
528.111	1982.1	48.5502	473.296	521.488	
528.303	1981.98	-8.79149	472.857	519.956	
528.495	1989.57	-11.0306	474.104	523.93	
528.688	1991.71	-30.6564	470.401	522.231	
528.88	1992.13	46.4135	465.883	519.615	
529.072	1999.47	-38.4145	469.524	521.581	
529.264	2000.64	71.157	467.597	518.478	
529.456	1996.58	10.8494	464.138	517.35	
529.648	1999.8	-0.494084	462.721	518.635	
529.84	2001.86	-4.95092	462.578	516.295	
530.032	2006.32	-10.1708	461.544	517.045	
530.224	2007.98	-33.987	459.38	512.403	
530.416	2010.95	-1.73862	459.1	512.169	
530.608	2014.74	-78.9818	459.81	513.412	
530.8	2017.35	7.73527	458.023	510.39	
530.992	2019.83	-22.4977	455.686	511.63	
531.184	2022.95	45.0326	455.276	511.6	
531.376	2023.06	-13.5064	453.751	507.793	
531.568	2028.74	21.5943	451.524	510.733	
531.759	2029.92	2.76506	450.76	507.687	
531.951	2035.43	44.6511	449.721	509.912	
532.143	2030.06	-37.9724	446.584	505.328	
532.335	2036.76	18.9263	445.551	507.882	
532.526	2038.56	-76.3918	446.133	501.176	
532.718	2038.15	50.1572	445.865	501.19	
532.91	2043.46	87.192	442.954	502.112	
533.101	2049.35	-15.5233	442.459	504.858	
533.293	2050.61	-1.78263	442.514	502.309	
533.484	2056.25	15.3284	442.885	503.687	
533.676	2056.83	-27.5738	440.092	499.273	
533.868	2057.71	-15.5859	438.91	500.095	
534.059	2061.81	-16.3932	438.093	497.723	
534.251	2064.7	40.821	435.291	499.937	
534.442	2065.85	39.302	435.29	499.252	
534.633	2068.9	-31.4061	433.583	495.502	
534.825	2081.15	-36.7449	438.688	498.929	
535.016	2073.44	-38.1322	432.107	494.32	
535.208	2081.71	-57.1592	429.398	494.333	
535.399	2078.84	-30.7615	429.663	491.634	
535.59	2085.12	-36.5609	428.564	492.835	
535.781	2087.79	10.1277	427.876	491.551	
535.973	2087.12	-17.1175	425.824	490.335	
536.164	2088.25	50.831	426.12	490.177	
536.355	2093.93	12.4616	424.533	491.964	
536.546	2094.35	62.0889	423.273	488.185	
536.737	2097.35	-20.7908	421.559	488.489	
536.929	2103.5	23.1417	420.054	488.127	
537.12	2102.8	51.6932	419.34	483.554	
537.311	2101.7	39.2491	417.316	485.798	
537.502	2105.01	-37.7455	415.709	482.003	
537.693	2109.7	56.06	415.052	483.576	
537.884	2108.81	27.3759	411.294	482.854	
538.075	2111.54	12.2479	411.499	481.216	
538.266	2109.95	-4.17163	412.175	477.947	
538.457	2114.03	-7.05334	409.825	479.349	
538.648	2119.44	64.8121	410.548	480.029	
538.838	2122.75	-1.83083	408.964	480.593	
539.029	2122.6	14.0971	408.065	477.332	
539.22	2129.56	37.4121	407.08	477.108	
539.411	2127.26	15.3862	402.71	473.312	
539.602	2135.76	68.8529	403.905	477.034	
539.792	2133.64	5.476	404.287	471.355	
539.983	2133.7	141.484	400.535	473.017	
540.174	2145.19	14.4001	402.039	474.161	
540.365	2142.68	43.0983	397.14	472.523	
540.555	2143.57	12.2653	397.998	467.727	
540.746	2140.73	77.3308	394.793	469.017	
540.936	2149.01	59.1923	394.056	469.641	
541.127	2149.51	52.8618	394.396	467.847	
541.317	2150.79	55.6655	391.698	464.201	
541.508	2144.84	80.1382	391.355	466.34	
541.698	2154.33	106.986	389.087	467.803	
541.889	2156.38	143.583	390.143	464.799	
542.079	2163.03	28.0207	385.961	463.935	
542.27	2161.11	83.6502	387.317	460.573	
542.46	2162.17	57.7039	384.301	459.877	
542.651	2162.34	108.965	384.787	462.451	
542.841	2172.93	96.6648	384.36	461	
543.031	2174.48	60.1117	381.303	460.571	
543.222	2170.16	75.5632	380.643	461.519	
543.412	2172.68	95.3227	378.201	456.28	
543.602	2173.82	177.243	376.707	452.338	
543.792	2180.61	54.813	377.264	455.684	
543.982	2171.32	100.185	377.701	455.611	
544.173	2178.57	59.7591	372.512	452.157	
544.363	2181.96	95.6913	372.563	451.972	
544.553	2186.02	110.754	371.23	450.347	
544.743	2186.35	36.1195	371.818	449.488	
544.933	2190.33	66.5826	368.951	447.365	
545.123	2194.96	109.562	367.986	446.506	
545.313	2197.86	143.103	369.525	447.536	
545.503	2198.16	81.2077	368.397	448.379	
545.693	2200.61	61.4846	367.697	448.095	
545.883	2203.26	63.9315	366.535	444.645	
546.073	2203.78	112.578	365.851	446.574	
546.263	2209.93	38.7118	366.039	443.513	
546.453	2208.32	72.1337	361.629	443.533	
546.643	2210.7	59.5622	360.293	442.48	
546.832	2213.69	96.4703	359.13	442.467	
547.022	2219.36	65.7454	361.47	443.483	
547.212	2222.77	15.6486	357.993	440.762	
547.402	2217.61	-6.03595	356.369	437.754	
547.591	2223.16	51.8275	356.129	441.15	
547.781	2225.86	36.897	355.11	439.847	
547.971	2229.95	60.6757	354.812	437.853	
548.16	2232.29	-19.5576	355.971	437.01	
548.35	2233.96	53.0592	350.354	435.782	
548.54	2233.52	6.48596	352.021	436.189	
548.729	2238.37	10.2356	350.196	436.125	
548.919	2242.83	61.5252	349.166	431	
549.108	2244.07	-10.9404	347.191	432.095	
549.298	2245.92	8.68693	347.396	432.892	
549.487	2250.68	24.29	347.836	431.859	
549.677	2248.53	-14.8478	344.299	430.927	
549.866	2256.4	-14.1087	345.218	432.279	
550.055	2255.88	6.66603	343.794	426.009	
550.245	2259.17	52.3371	342.502	429.368	
550.434	2265.69	17.0451	343.182	428.605	
550.623	2266.78	17.2446	341.028	429.091	
550.813	2266.05	19.9339	340.857	426.023	
551.002	2269.53	17.95	337.948	426.37	
551.191	2271.45	52.2662	339.262	424.54	
551.381	2271.9	63.419	335.897	424.39	
551.57	2278.56	-17.637	338.199	424.457	
551.759	2276.76	-8.29967	333.388	424.082	
551.948	2283	11.9686	333.205	424.086	
552.137	2284.3	5.11627	334.56	419.653	
552.326	2291.31	62.5921	332.267	424.134	
552.515	2292.89	6.5647	332.965	420.316	
552.704	2292.5	-28.561	330.988	421.947	
552.893	2291.65	-9.42455	330.077	419.247	
553.082	2298.11	34.2865	330.119	420.697	
553.271	2294.83	58.6625	329.095	418.163	
553.46	2297.92	43.9881	326.047	417.661	
553.649	2302.4	77.8365	322.924	417.545	
553.838	2297.88	-45.9274	324.671	413.05	
554.027	2306.46	6.94245	323.552	414.043	
554.216	2301.24	14.0788	322.112	414.444	
554.405	2301.24	25.7325	322.193	413.321	
554.593	2307.79	-32.1242	320.803	410.83	
554.782	2303.08	-16.3513	321.098	410.311	
554.971	2303.82	-30.0452	316.971	408.242	
555.16	2306.66	7.09152	318.126	408.141	
555.348	2312.43	-2.83435	316.92	406.375	
555.537	2312.68	14.1545	315.697	408.487	
555.726	2315.61	-18.3756	314.442	404.451	
555.914	2315.96	57.9507	315.748	408.03	
556.103	2318.63	-22.362	314.323	407.49	
556.291	2326.3	3.2943	313.907	406.571	
556.48	2322.91	90.8544	310.918	401.694	
556.668	2336.04	12.7077	312.092	403.917	
556.857	2332.11	31.8849	311.213	406.117	
557.045	2336.33	-51.2145	310.498	402.731	
557.234	2335.87	11.7134	310.499	403.535	
557.422	2343.12	-7.74022	309.957	402.621	
557.611	2342.37	-13.3387	309.663	402.847	
557.799	2348.68	-60.4195	306.495	398.826	
557.987	2342.34	-52.5919	308.072	400.12	
558.176	2349.72	-17.5307	304.302	400.277	
558.364	2349.84	-22.1608	304.848	399.323	
558.552	2355.28	43.8707	304.838	399.86	
558.74	2354.4	-24.716	301.93	399.1	
558.929	2362.23	59.9445	303.656	397.173	
559.117	2359.9	-38.6672	301.286	395.982	
559.305	2364.23	50.2984	301.45	397.763	
559.493	2365.94	16.2959	300.666	395.493	
559.681	2369.75	21.8744	298.435	397.071	
559.869	2373.07	-6.28268	299.389	395.894	
560.057	2378.65	-9.31188	299.81	396.576	
560.245	2375.31	-10.6976	299.648	395.973	
560.433	2377.65	-16.2661	299.202	395.482	
560.621	2379.86	-35.783	295.845	392.118	
560.809	2382.68	43.2431	295.272	391.553	
560.997	2383.44	-23.7047	296.386	391.546	
561.185	2388.3	-52.566	295.243	392.42	
561.373	2390.92	9.0659	296.038	390.819	
561.561	2393.78	25.7946	295.763	391.892	
561.749	2399.42	-4.65232	293.006	387.898	
561.937	2398.13	-14.6469	292.5	391.107	
562.124	2398	-23.6748	293.206	387.982	
562.312	2406.4	-1.16335	292.051	388.872	
562.5	2406.97	16.9844	291.946	388.578	
562.688	2406.22	-11.6206	289.492	388.376	
562.875	2409.95	-15.1239	289.594	386.278	
563.063	2412.68	-1.6298	289.908	387.168	
563.251	2415.2	-38.6489	287.668	387.456	
563.438	2414.41	92.8321	286.72	384.159	
563.626	2416.68	16.5237	286.746	385.748	
563.813	2422.88	1.63302	286.938	386.148	
564.001	2420.62	-28.2073	286.589	385.276	
564.188	2422.46	-17.0232	287.228	384.112	
564.376	2432.95	44.43	286.573	382.417	
564.563	2431.01	16.8329	284.725	382.854	
564.751	2433.96	-11.2207	283.917	382.223	
564.938	2433.23	-3.73677	284.799	382.236	
565.126	2438.71	16.3631	283.713	381.051	
565.313	2442.92	36.5143	283.574	382.958	
565.5	2440.14	47.8884	281.721	378.323	
565.688	2448.37	-4.4543	280.846	379.857	
565.875	2445.11	9.59978	281.431	378.647	
566.062	2456.58	18.327	279.954	379.829	
566.249	2450.9	-5.63575	279.943	377.645	
566.437	2454.57	11.5199	278.544	376.188	
566.624	2450.97	-58.2778	276.45	372.702	
566.811	2455.86	-7.78061	279.102	377.311	
566.998	2457.39	-38.1468	277.723	373.639	
567.185	2464.33	-9.44304	276.905	375.506	
567.372	2463.06	27.3943	277.116	375.924	
567.559	2464.82	-9.21437	276.712	374.337	
567.746	2467.57	-19.6532	276.834	373.49	
567.933	2464.96	24.6034	275.705	372.115	
568.12	2469.41	12.0847	274.326	369.219	
568.307	2470.92	36.0649	273.775	371.451	
568.494	2475.69	18.3037	272.889	370.905	
568.681	2475.76	37.3724	272.87	373.101	
568.868	2475.36	-46.9232	273.165	372.839	
569.055	2484.94	18.4135	272.391	371.314	
569.242	2482.04	-5.25811	272.289	370.647	
569.429	2484.86	-24.8996	272.569	370.587	
569.615	2489.93	-17.2801	274.213	367.942	
569.802	2490.01	61.9352	270.486	369.55	
569.989	2494.8	39.9501	270.776	369.127	
570.176	2496.7	21.9133	268.831	369.392	
570.362	2501.2	-3.62454	270.375	369.091	
570.549	2498.7	3.86853	269.032	367.647	
570.736	2507.95	-23.4978	270.373	368.466	
570.922	2505.18	15.2844	268.919	367.92	
571.109	2510.18	21.1494	267.081	366.589	
571.295	2507.25	-43.9835	267.559	367.255	
571.482	2508.67	-1.21658	266.52	365.339	
571.668	2519.66	28.3173	267.91	364.547	
571.855	2522.59	-24.9646	266.315	362.992	
572.041	2523.54	-9.31266	265.597	366.925	
572.228	2525.66	-31.1518	266.589	362.907	
572.414	2525.1	-25.7914	264.149	363.139	
572.601	2525.01	-41.0665	264.43	365.449	
572.787	2524.7	-36.6981	263.688	363.388	
572.973	2530.55	33.7934	263.751	363.898	
573.16	2531.89	-17.8047	264.096	360.785	
573.346	2536.4	2.47505	263.697	360.537	
573.532	2539.43	29.8235	262.592	361.507	
573.718	2541.94	-27.3446	264.033	359.042	
573.905	2533.63	-31.3043	260.73	359.629	
574.091	2537.16	9.97396	260.118	360.522	
574.277	2545.78	122.605	261.65	360.301	
574.463	2546.86	14.7858	260.554	359.544	
574.649	2546	18.3202	260.573	359.92	
574.835	2546.41	-54.5664	260.757	357.25	
575.021	2550.68	-60.1518	260.413	358.317	
575.207	2547.65	3.27833	259.331	356.168	
575.393	2552.46	30.8279	258.5	356.391	
575.579	2556.15	-18.7425	259.275	357.191	
575.765	2557.59	19.5578	258.711	353.571	
575.951	2565.93	-34.7167	256.628	357.46	
576.137	2565.65	3.32192	257.043	356.172	
576.323	2564.87	4.09672	259.391	355.083	
576.509	2574.24	-34.1339	259.028	357.819	
576.695	2575.5	38.8377	258.81	355.827	
576.88	2584.28	6.20345	257.817	356.9	
577.066	2586.12	55.3571	258.778	356.748	
577.252	2587.02	4.14093	256.237	354.136	
577.438	2586.07	-53.1362	258.373	354.761	
577.623	2592.94	-11.4546	257.022	354.525	
577.809	2599.84	-45.347	256.702	353.807	
577.995	2599.37	42.6191	256.375	357.633	
578.18	2600.27	-23.5012	256.347	352.075	
578.366	2605.09	41.6682	256.452	354.15	
578.552	2604.84	-40.698	256.265	353.817	
578.737	2609.67	19.9961	256.463	351.76	
578.923	2610.81	-10.5402	255.634	352.569	
579.108	2614.56	24.3201	254.73	354.407	
579.294	2607.02	-12.6988	253.448	352.04	
579.479	2610.01	-13.53	252.483	352.977	
579.665	2614.64	-42.6021	253.663	349.731	
579.85	2616.38	-6.13619	253.437	350.051	
580.035	2620.36	15.5118	252.776	348.342	
580.221	2622.06	20.1208	252.484	353.16	
580.406	2622.5	1.34212	252.786	348.649	
580.591	2626.4	-29.589	251.713	351.042	
580.777	2628.94	-28.3051	250.208	349.788	
580.962	2632.17	-46.7667	252.158	349.909	
581.147	2641.04	9.21852	253.11	349.742	
581.332	2638.93	0.542902	250.29	348.121	
581.517	2643	-35.6439	252.97	350.506	
581.703	2640.84	-47.5888	250.482	349.412	
581.888	2647.05	-10.3769	250.342	351.235	
582.073	2653.62	-15.6024	250.469	348.391	
582.258	2658.02	8.23077	252.403	347.66	
582.443	2661.52	7.16305	248.086	349.471	
582.628	2656.99	35.2182	250.442	348.429	
582.813	2657.84	-5.78854	250.545	346.929	
582.998	2667.2	-44.5157	253.306	346.485	
583.183	2668.61	55.0625	247.307	347.102	
583.368	2681.72	-11.9616	248.464	345.566	
583.553	2676.89	-54.7778	249.991	346.515	
583.738	2678.45	7.51172	250.248	346.38	
583.923	2682.03	84.4361	248.493	348.442	
584.107	2690.71	24.0535	248.6	346.249	
584.292	2694.01	-31.9274	251.097	348.093	
584.477	2690.75	22.9782	249.646	347.126	
584.662	2697.69	34.2503	250.778	346.267	
584.846	2698.4	40.806	249.371	344.979	
585.031	2704.64	-8.44782	246.736	344.806	
585.216	2707.15	-5.36442e-07	246.096	343.817	
585.4	2712.63	55.9746	248.082	347.386	
585.585	2712.13	26.8706	248.688	347.552	
585.77	2718.03	77.6976	249.356	348.927	
585.954	2712.91	82.4103	249.429	344.639	
586.139	2721.04	-5.67708	247.046	345.524	
586.323	2724.6	-14.7904	249.952	345.028	
586.508	2731.95	2.84829	248.399	344.596	
586.692	2730.95	0.855462	247.498	346.238	
586.877	2733.98	-27.4082	245.958	345.655	
587.061	2738.17	18.0314	248.435	345.919	
587.246	2736.68	38.896	245.449	343.909	
587.43	2737.87	24.3119	249.364	344.056	
587.614	2743.67	15.1888	246.957	344.433	
587.799	2756.74	13.8103	247.815	340.958	
587.983	2755	7.47669	248.496	346.575	
588.167	2759.86	-23.8654	248.2	343.048	
588.351	2761.95	2.30477	246.66	346.994	
588.536	2763.02	69.3735	248.102	341.521	
588.72	2763.43	-31.649	246.064	342.622	
588.904	2767.79	25.963	246.77	340.871	
589.088	2772.01	-11.8153	247.433	342.8	
589.272	2776.03	-28.5891	246.134	341.701	
589.456	2779.15	53.411	244.886	344.798	
589.641	2778.99	-39.2394	246.685	342.206	
589.825	2784.47	-49.9678	245.739	342.633	
590.009	2782.74	-9.23341	244.133	343.065	
590.193	2790.08	60.9722	247.268	342.55	
590.377	2793.74	-4.04159	247.338	344.028	
590.561	2795.3	61.5029	244.135	345.927	
590.745	2804.39	-27.5039	246.24	344.096	
590.928	2802.69	61.7985	244.918	341.062	
591.112	2807.81	16.1981	245.339	343.491	
591.296	2808.63	28.6149	244.46	340.69	
591.48	2816.28	6.65213	244.428	342.224	
591.664	2819.98	-8.9807	244.572	341.68	
591.848	2820.23	-62.27	244.373	341.031	
592.031	2822.92	-20.2868	244.966	341.009	
592.215	2822.31	57.0392	243.813	339.844	
592.399	2827.57	30.1424	243.833	339.902	
592.582	2833.27	-29.2726	243.89	341.64	
592.766	2837.05	21.718	243.182	340.383	
592.95	2834.62	11.5452	243.179	339.351	
593.133	2841.17	99.4459	243.743	340.895	
593.317	2848.94	-48.8674	243.768	340.192	
593.5	2848.55	-48.8064	242.813	341.465	
593.684	2850.41	-22.2396	243.892	340.033	
593.867	2858.71	5.77614	242.396	340.898	
594.051	2854.03	2.01825	244.339	339.004	
594.234	2863.54	-17.6136	244.231	340.827	
594.418	2866.34	-70.0982	245.236	339.066	
594.601	2871.44	27.4367	242.55	339.281	
594.785	2874.18	18.1624	241.141	340.582	
594.968	2882.65	23.0903	242.398	337.55	
595.151	2884.05	-41.2519	242.596	339.312	
595.334	2883.4	9.21987	239.546	341.31	
595.518	2891.51	-33.4224	242.406	340.484	
595.701	2887.4	-42.2128	242.271	336.46	
595.884	2898.51	-74.1884	240.832	337.699	
596.067	2894.72	-43.3873	241.04	340.457	
596.251	2896.63	-1.43297	241.886	338.106	
596.434	2905.54	31.2823	241.563	340.097	
596.617	2908.99	-26.4074	243.587	341.333	
596.8	2913.47	-2.01028	240.776	338.457	
596.983	2917.71	-41.0572	241.372	340.464	
597.166	2911.91	85.5636	240.978	335.566	
597.349	2924.08	-43.2768	238.838	338.365	
597.532	2921.19	37.1391	241.12	340.386	
597.715	2927.26	-8.30441	238.736	337.873	
597.898	2926.56	0.285736	240.704	339.454	
598.081	2928.91	55.4215	238.615	337.974	
598.264	2928.29	5.70254	240.689	337.651	
598.447	2942.36	-18.5802	240.068	338.134	
598.63	2940.22	66.785	240.084	336.57	
598.812	2948.06	-12.8651	239.922	337.029	
598.995	2946.94	26.8148	239.264	336.425	
599.178	2950.11	-19.0868	242.072	335.664	
599.361	2951.83	-4.26844	239.52	336.765	
599.543	2953.22	20.2234	239.726	335.925	
599.726	2953.02	-9.09619	239.607	336.898	
599.909	2962.3	-3.41363	237.795	336.24	
600.091	2963.26	83.2571	238.144	333.904	
600.274	2957.13	4.81479	238.117	334.941	
600.457	2965.48	5.95526	239.787	338.002	
600.639	2971.48	13.0348	239.941	333.395	
600.822	2973.75	39.6281	237.916	335.684	
601.004	2982.47	19.5478	238.019	338.289	
601.187	2983.56	-32.8408	237.803	333.89	
601.369	2978.77	-0.847116	237.349	334.447	
601.552	2988.6	1.6955	236.031	337.102	
601.734	2989.42	31.9199	238.433	335.586	
601.917	2990.43	1.69303	236.116	336.306	
602.099	2995.6	15.7844	238.738	336.15	
602.281	3003.15	-7.90261	237.976	335.742	
602.464	2995.79	-10.6918	235.412	334.695	
602.646	3007.1	-12.6862	238.116	333.403	
602.828	3008.11	-80.5971	236.104	334.681	
603.01	3011.14	-9.00058	237.555	335.286	
603.193	3014.38	-37.6587	236.995	332.097	
603.375	3013.93	45.2352	236.364	336.012	
603.557	3021.04	-63.8276	237.898	336.667	
603.739	3017.57	7.30036	234.989	334.686	
603.921	3021.7	-52.8092	234.237	332.496	
604.103	3030.47	0.281357	235.567	335.055	
604.285	3027.19	10.6915	236.837	333.061	
604.467	3038.95	9.58076	233.934	332.71	
604.65	3035.09	-48.4018	236.52	332.779	
604.832	3035.05	44.1325	236.052	332.225	
605.013	3034.33	-1.96573	234.832	332.894	
605.195	3044.65	-2.2498	236.214	334.268	
605.377	3042.82	-6.46038	235.317	332.522	
605.559	3045.72	-25.2451	232.365	331.681	
605.741	3051.49	-31.7096	236.095	334.629	
605.923	3051.61	5.8788	235.551	332.188	
606.105	3056.87	23.5344	235.233	334.078	
606.287	3056.1	24.608	234.229	333.798	
606.468	3061.51	-33.2801	233.908	331.996	
606.65	3065.43	49.445	233.935	333.905	
606.832	3060.18	-23.7332	232.95	333.058	
607.013	3066.35	8.66472	232.209	332.011	
607.195	3064.58	-20.1091	233.405	330.748	
607.377	3066.05	37.9543	233.65	333.671	
607.558	3070.31	-45.2672	233.353	334.636	
607.74	3070.42	-3.07223	231.952	329.742	
607.922	3071.47	-39.8919	233.19	330.716	
608.103	3068.5	30.3643	232.175	330.399	
608.285	3079.68	1.67565	233.897	331.512	
608.466	3078.87	42.9287	234.737	333.677	
608.648	3074.81	-35.152	233.028	331.528	
608.829	3077.35	57.6797	229.874	331.561	
609.01	3082.34	10.5955	233.389	332.597	
609.192	3087.35	-32.3476	230.802	334.408	
609.373	3089.26	-12.5563	232.499	330.997	
609.555	3083.05	-11.7049	230.978	333.126	
609.736	3094.09	25.4255	231.948	329.719	
609.917	3089.67	67.0994	231.038	331.371	
610.099	3094.93	58.1318	233.761	329.995	
610.28	3091.13	165.491	232.35	332.577	
610.461	3098.31	163.327	229.628	329.582	
610.642	3098.45	69.9857	230.156	331.346	
610.823	3100.97	33.8949	229.311	328.997	
611.004	3102.21	125.354	230.595	331.701	
611.186	3103.55	75.4626	229.359	330.238	
611.367	3102.17	63.3742	228.091	332.537	
611.548	3108.91	72.7769	228.413	331.293	
611.729	3104.79	81.2119	230.155	329.258	
611.91	3107.23	72.5034	229.263	328.781	
612.091	3112.42	128.518	227.513	330.065	
612.272	3114.64	31.2345	228.969	331.62	
612.453	3107.95	87.6252	227.442	329.39	
612.634	3113.23	103.536	230.588	328.985	
612.815	3106.79	31.7631	228.726	328.681	
612.995	3107.02	58.758	228.084	326.727	
613.176	3108.99	-25.0287	227.943	327.739	
613.357	3099.43	16.5817	227.255	325.958	
613.538	3099.78	63.2952	227.904	327.845	
613.719	3108.15	29.0237	228.624	328.638	
613.899	3100.16	105.678	229.375	326.486	
614.08	3104.59	1.12954	227.827	324.704	
614.261	3099.65	58.4291	226.844	325.938	
614.441	3102.45	78.8873	225.995	327.313	
614.622	3098.34	0.565288	226.858	326.763	
614.803	3103.11	26.6169	229.113	326.972	
614.983	3105.05	43.0739	227.324	327.093	
615.164	3100.79	-19.5725	228.044	324.186	
615.344	3096.55	15.5719	228.385	326.969	
615.525	3106.63	39.5	227.344	325.554	
615.705	3105.04	46.0741	226.137	326.836	
615.886	3101.27	-10.5171	226.388	326.632	
616.066	3096.6	77.3244	225.88	325.056	
616.247	3099.5	-32.1763	225.84	325.975	
616.427	3098.22	-9.98169	226.044	325.88	
616.607	3101.56	25.1425	227.406	323.462	
616.788	3097.08	-19.7272	225.144	323.685	
616.968	3095.13	-24.0306	226.316	323.468	
617.148	3094.99	24.0593	226.797	323.397	
617.329	3090.74	2.00483	226.406	322.466	
617.509	3088.41	-10.8921	226.648	324.715	
617.689	3087.52	-41.3227	224.145	323.051	
617.869	3086.94	32.7188	223.519	323.111	
618.049	3088.12	29.8765	224.792	323.748	
618.23	3085.04	20.1006	224.093	327.353	
618.41	3089.32	-5.18389	227.066	320.837	
618.59	3089.32	27.1154	225.47	323.585	
618.77	3077.04	30.4842	224.141	323.608	
618.95	3081.22	61.9342	224.755	323.792	
619.13	3072.93	25.6485	224.475	320.345	
619.31	3078.74	-21.9724	224.35	322.455	
619.49	3077.19	27.4777	225.313	319.335	
619.67	3068.34	34.4179	226.132	321.712	
619.85	3066.94	-16.4796	223.092	319.56	
620.03	3066.99	-8.4006	223.417	321.231	
620.209	3064.08	-38.1909	222.78	321.826	
620.389	3065	45.2561	223.012	321.492	
620.569	3064.76	-44.3833	224.58	324.544	
620.749	3055.14	20.8997	224.195	322.965	
620.929	3052.68	-51.416	223.643	321.44	
621.108	3054.51	50.9292	223.384	321.789	
621.288	3048.22	-10.7659	223.964	321.866	
621.468	3051.05	-8.34465e-07	223.423	320.642	
621.647	3049.14	82.4059	223.925	322.462	
621.827	3042.79	-15.1619	223.292	322.913	
622.007	3040.33	1.45783	224.385	319.902	
622.186	3037.44	-10.8169	225.11	321.721	
622.366	3033	24.5359	224.303	321.025	
622.545	3027.35	31.5606	223.991	320.27	
622.725	3024.19	-21.3616	224.458	322.136	
622.904	3028.71	-12.0342	224.928	321.691	
623.084	3019.61	12.9024	225.869	320.858	
623.263	3015.98	83.9441	227.424	321.289	
623.443	3011.03	-7.63009	225.09	319.096	
623.622	3011.88	-21.4723	224.841	319.496	
623.802	3010.49	6.47238	226.249	321.059	
623.981	3002.17	25.8986	224.943	318.335	
624.16	3005.16	-66.0159	226.743	320.757	
624.339	2998.25	54.7902	225.109	318.311	
624.519	2993.21	8.84754	223.917	319.648	
624.698	2989.57	33.3405	224.818	322.813	
624.877	2994.15	-20.9806	224.991	321.147	
625.056	2981.21	29.2412	225.965	320.128	
625.235	2986.42	15.0939	226.544	320.284	
625.415	2977.12	-9.76536	227.977	321.152	
625.594	2977.34	-28.1695	225.611	320.043	
625.773	2970.33	8.60175	227.79	320.709	
625.952	2964.5	-7.41708	228.161	321.656	
626.131	2969.72	15.461	228.222	320.85	
626.31	2960.42	-40.1333	230.33	320.09	
626.489	2955.51	26.4912	225.987	319.649	
626.668	2955.47	-32.7787	228.106	318.595	
626.847	2950.82	-17.0143	226.965	321.41	
627.026	2940.13	-36.7093	225.769	318.269	
627.205	2940.04	31.0986	228.567	322.62	
627.383	2934.84	10.1607	228.56	317.615	
627.562	2929.13	-5.98606	225.87	319.392	
627.741	2930.61	110.917	229.658	320.01	
627.92	2922.52	-41.4258	229.309	322.627	
628.099	2922.24	-95.4258	229.082	320.186	
628.277	2915.76	-18.6413	230.944	319.319	
628.456	2918.79	17.1738	231.899	323.312	
628.635	2909.51	26.2409	229.707	320.394	
628.813	2912.41	-39.2987	232.564	322.387	
628.992	2901.98	2.41942	231.234	320.713	
629.171	2896.75	5.14393	233.318	321.048	
629.349	2894.41	-17.5919	229.515	320.366	
629.528	2889.17	-0.910326	233.644	321.582	
629.706	2881.11	105.062	232.571	321.378	
629.885	2876.93	-27.3217	234.078	319.706	
630.063	2868.38	27.0299	232.467	321.292	
630.242	2865.94	-5.77503	234.533	323.266	
630.42	2861.37	-39.5993	235.336	322.353	
630.599	2860.56	-10.9587	235.121	323.237	
630.777	2856.3	-31.0775	234.363	321.38	
630.955	2853.22	-25.6189	237.528	323.982	
631.134	2835.04	48.4002	233.985	321.187	
631.312	2836.7	7.64015	238.299	321.363	
631.49	2833.33	60.6523	235.995	323.154	
631.669	2827.8	-24.1963	237.356	324.565	
631.847	2820.78	98.2954	236.796	323.173	
632.025	2812.5	-75.2811	237.671	322.806	
632.203	2814.94	-37.9577	237.8	325.874	
632.381	2808.99	47.5484	238.771	322.485	
632.56	2810.48	9.30453	239.846	328.239	
632.738	2802.11	-5.57856	240.014	326.503	
632.916	2792.01	9.60538	243.297	322.516	
633.094	2791.96	-33.5632	244.974	326.043	
633.272	2786.9	41.9965	241.645	323.543	
633.45	2781.04	68.4024	245.25	324.493	
633.628	2773.63	41.3695	242.84	325.019	
633.806	2767.8	27.7163	243.629	324.308	
633.984	2764.6	2.49112	245.442	326.445	
634.162	2760.06	-50.7786	246.194	324.657	
634.339	2747.84	-36.5275	244.368	325.415	
634.517	2748.33	-72.8104	247.766	328.118	
634.695	2729.15	-3.75108	247.6	327.498	
634.873	2732.39	-34.4203	245.953	325.203	
635.051	2719.64	5.33215	247.889	325.299	
635.229	2707.39	18.4738	246.953	326.275	
635.406	2715.51	10.0775	248.334	328.471	
635.584	2704.43	18.2679	248.887	327.46	
635.762	2702.76	54.2882	251.003	327.869	
635.939	2697.46	-23.0473	251.288	328.112	
636.117	2687.58	16.7553	251.035	331.102	
636.295	2686.55	-50.0756	252.63	328.927	
636.472	2678.52	-47.5795	252.472	328.197	
636.65	2675.98	-21.2551	253.19	329.645	
636.827	2672.74	59.5172	254.019	328.728	
637.005	2664.83	11.1336	254.954	327.524	
637.182	2654.99	28.3413	255.847	328.749	
637.36	2653.44	40.1011	256.293	329.09	
637.537	2635.63	227.138	256.806	330.017	
637.715	2641	-45.8908	259.315	331.508	
637.892	2630.86	15.3363	258.404	329.74	
638.069	2623.88	22.3538	258.497	330.881	
638.247	2623.21	-0.319958	261.009	332.658	
638.424	2615.83	25.9249	261.603	330.843	
638.601	2612.15	36.5637	261.843	332.554	
638.778	2600.38	-64.1582	262.512	329.579	
638.956	2598.63	-4.18573	263.329	331.16	
639.133	2592.11	-0.644026	265.186	331.285	
639.31	2579.9	8.37244	265.366	331.572	
639.487	2573.49	64.5008	267.326	330.193	
639.664	2568.22	15.1936	265.626	332.499	
639.841	2571.48	6.80054	267.356	333.418	
640.019	2561	26.9089	264.496	333.768	
640.196	2555.88	-11.0269	269.355	336.079	
640.373	2548.31	36.0683	268.702	334.231	
640.55	2545.75	-19.5259	270.718	335.479	
640.727	2531.2	-27.316	274.952	337.844	
640.904	2526.94	-56.9838	271.089	337.668	
641.081	2527.43	49.9778	273.46	339.03	
641.257	2519.78	66.7078	277.411	337.208	
641.434	2510.37	1.96585	274.37	337.517	
641.611	2504.3	-72.5092	277.412	336.228	
641.788	2493.64	-9.5256	279.542	336.083	
641.965	2493.21	105.695	280.443	340.194	
642.142	2483.6	-32.605	278.154	336.185	
642.318	2478	-10.5588	280.761	336.569	
642.495	2469.38	11.5438	278.183	339.156	
642.672	2466.57	45.9851	282.604	337.676	
642.848	2457.41	34.7113	281.274	339.214	
643.025	2454.31	-2.64674	284.136	343.202	
643.202	2445.69	-14.585	285.503	339.556	
643.378	2443.11	-19.9046	291.18	340.3	
643.555	2434.59	-8.30352	285.263	341.394	
643.731	2427.2	126.62	287.55	340.258	
643.908	2426.42	72.0315	288.859	342.483	
644.084	2416.43	-23.3407	290.759	343.731	
644.261	2408.26	1.67386	290.183	340.288	
644.437	2400.58	-4.01342	290.786	340.82	
644.614	2398.43	-17.778	292.905	343.109	
644.79	2380.28	11.7349	293.428	343.094	
644.967	2382.04	9.41814	295.828	346.888	
645.143	2381.13	65.0055	298.356	345.151	
645.319	2375.41	91.5419	299.724	349.672	
645.496	2371.48	-40.2738	296.909	346.546	
645.672	2361.35	10.1295	300.378	343.687	
645.848	2352.77	-9.81058	298.503	345.572	
646.024	2345.42	52.8353	303.315	347.593	
646.201	2346.79	41.4241	306.529	347.41	
646.377	2334.08	-31.2436	301.17	346.043	
646.553	2331.44	-21.7761	307.34	347.489	
646.729	2331.87	77.4125	309.325	351.748	
646.905	2319.03	7.50336	309.887	350.382	
647.081	2309.03	165.396	309.948	352.303	
647.257	2303.88	-25.9319	310.998	349.896	
647.433	2298.4	-57.4452	312.039	352.411	
647.609	2291.93	69.8251	314.606	352.348	
647.785	2291.41	-37.7574	316.359	354.116	
647.961	2277.35	-4.11176	313.641	355.535	
648.137	2272.41	47.3678	316.193	352.897	
648.313	2269.25	-98.0423	320.083	354.255	
648.489	2261.04	6.19936	317.582	353.331	
648.665	2254.64	-78.6661	321.159	354.847	
648.841	2248.62	110.175	319.323	357.379	
649.016	2246.8	28.5935	324.909	353.779	
649.192	2239.27	-0.345128	323.38	356.191	
649.368	2231.11	-8.6371	327.39	359.359	
649.544	2223.67	56.5795	325.544	358.985	
649.719	2218.72	9.32828	328.063	353.814	
649.895	2211.39	78.5456	327.28	359.714	
650.071	2199.22	7.25294	331.031	357.694	
650.246	2193.7	11.4151	328.972	361.141	
650.422	2186.08	4.4966	330.209	357.835	
650.597	2179.28	-54.358	328.68	361.133	
650.773	2175.01	1.38464	334.978	358.909	
650.949	2167.5	14.8937	336.825	358.461	
651.124	2163.81	32.9792	336.05	359.308	
651.3	2154.16	41.9881	337.73	361.442	
651.475	2148.72	-44.8453	340.875	365.071	
651.65	2135.06	-27.7845	339.952	361.37	
651.826	2133.84	48.6905	339.938	360.852	
652.001	2125.92	-42.4598	342.374	363.001	
652.177	2123.2	7.67096	345.835	366.105	
652.352	2112.72	-11.8414	344.567	360.193	
652.527	2108.92	-65.5107	347.824	360.044	
652.702	2100	-13.2439	346.002	363.846	
652.878	2083.59	-10.768	347.048	363.721	
653.053	2082.08	75.5683	346.491	363.926	
653.228	2076.13	-55.5177	351.824	365.488	
653.403	2071.61	12.9152	351.205	363.329	
653.578	2068.45	16.7995	355.6	367.267	
653.754	2063.06	-7.01194	354.605	369.167	
653.929	2052.09	15.0383	356.219	365.079	
654.104	2049.69	-80.3353	356.211	365.894	
654.279	2037.37	2.09885	358.812	364.246	
654.454	2033.23	25.6207	359.805	367.035	
654.629	2028.55	32.2238	358.957	369.371	
654.804	2024.55	1.05397	359.47	370.525	
654.979	2019.19	-4.91938	365.891	367.789	
655.154	2014.38	101.27	363.987	371.864	
655.329	2001.48	-2.45683	365.643	370.814	
655.503	1988.7	53.3138	365.057	372.47	
655.678	1988.23	55.107	369.947	372.053	
655.853	1977.17	-39.3214	369.502	371.538	
656.028	1967.74	12.6325	371.989	371.123	
656.203	1966.15	26.7276	373.371	371.636	
656.377	1955.28	-33.6752	374.37	370.301	
656.552	1949.84	95.0368	370.491	375.161	
656.727	1942.45	-1.05638	374.678	371.979	
656.902	1936.08	28.8491	373.389	372.498	
657.076	1931.11	71.1634	378.441	374.402	
657.251	1924.57	-3.87383	377.719	374.104	
657.425	1921.88	-117.958	380.785	374.494	
657.6	1910.12	-26.4108	380.377	375.423	
657.775	1905.37	7.38301	382.984	377.499	
657.949	1900.6	65.0654	383.445	376.364	
658.124	1892.25	-7.38055	385.431	376.481	
658.298	1890.67	3.52109	386.005	379.315	
658.472	1882.49	-66.7134	387.031	376.146	
658.647	1876.36	10.2193	388.69	378.376	
658.821	1869.71	-2.11088	392.48	378.408	
658.996	1863.77	5.63936	390.587	378.227	
659.17	1861.53	-29.2541	393.99	379.986	
659.344	1850.34	15.1433	392.383	383.109	
659.519	1847.13	90.6727	397.309	379.809	
659.693	1841.42	71.8992	397.612	384.313	
659.867	1835.03	92.6941	398.578	382.905	
660.041	1833.86	-61.3896	398.833	381.404	
660.216	1829.02	70.5178	402.983	383.897	
660.39	1823.97	-45.9272	404.896	385.654	
660.564	1817.27	-21.5395	406.447	383.425	
660.738	1816.08	40.6271	409.366	383.718	
660.912	1805.34	-36.3139	409.002	387.191	
661.086	1800.09	20.8188	409.109	388.996	
661.26	1790.94	-51.0317	410.234	385.41	
661.434	1784.47	100.116	411.428	389.854	
661.608	1780.57	-21.138	413.067	387.772	
661.782	1774.67	33.4809	412.485	389.248	
661.956	1765.43	43.6252	414.829	386.965	
662.13	1758.37	9.14628	416.5	388.1	
662.304	1753.44	-15.1255	419.732	389.926	
662.478	1745.78	-22.8114	417.771	387.122	
662.652	1742.51	-20.0271	421.366	388.151	
662.826	1734.72	-28.484	420.789	392.376	
662.999	1726.75	-56.2478	424.357	390.96	
663.173	1718.11	15.8148	424.045	391.338	
663.347	1719.92	52.8133	424.706	393.488	
663.521	1707.97	1.75894	426.848	393.123	
663.694	1702.15	-64.3014	427.608	392.119	
663.868	1696.77	137.781	428.425	391.754	
664.042	1688.9	18.5996	429.891	391.966	
664.215	1684.68	-11.2541	434.014	396.148	
664.389	1683.53	-52.4395	433.002	396.142	
664.562	1674.99	31.6335	437.807	396.941	
664.736	1667.9	5.95819	435.859	395.133	
664.909	1664.29	14.3997	435.305	395.829	
665.083	1657.47	-43.8211	437.695	399.109	
665.256	1648.33	4.90486	437.78	396.766	
665.43	1640.33	2.10079	438.944	396.088	
665.603	1638.69	-12.9954	442.725	396.878	
665.777	1629.06	110.279	442.729	396.143	
665.95	1625.64	-26.9986	445.278	396.774	
666.123	1617.31	32.5997	444.884	395.996	
666.297	1611.62	112.824	446.032	399.08	
666.47	1607.03	-2.10572	446.673	398.218	
666.643	1595.06	19.9643	445.311	398.565	
666.816	1595.46	19.987	448.374	400.078	
666.99	1581.01	13.2676	448.429	397.71	
667.163	1579.59	2.45166	451.75	400.428	
667.336	1572.01	-81.4636	451.525	398.684	
667.509	1557.7	10.0936	454.23	397.08	
667.682	1555.21	-19.1559	451.617	400.906	
667.855	1550.87	-109.593	451.587	397.683	
668.029	1539.8	25.4441	452.385	398.592	
668.202	1540.22	131.032	456.384	403.902	
668.375	1532.88	44.3565	458.828	402.084	
668.548	1522.05	33.8963	458.585	400.274	
668.721	1517.42	12.2256	456.559	400.274	
668.893	1512.02	-23.0649	459.327	400.243	
669.066	1503.18	23.0226	458.855	400.996	
669.239	1495.46	9.0662	462.534	403.767	
669.412	1492.65	39.837	463.809	400.047	
669.585	1486.58	64.1604	461.623	399.857	
669.758	1478.63	47.7019	462.258	403.228	
669.931	1468.36	-15.6275	462.075	398.547	
670.103	1467.15	-41.7816	465.043	401.396	
670.276	1463.68	-39.2833	465.177	400.609	
670.449	1454.11	-51.0281	464.971	406.677	
670.622	1441.63	-30.1753	467.235	399.347	
670.794	1436.89	25.9998	468.533	405.925	
670.967	1432.48	-4.84991	471.536	404.815	
671.139	1426.98	-11.0968	468.718	402.6	
671.312	1416.86	-9.00193	469.271	399.863	
671.485	1408.57	36.2482	469.328	398.627	
671.657	1407.24	-53.5818	474.265	401.071	
671.83	1398.86	21.0784	472.293	402.561	
672.002	1395.02	30.0688	474.969	402.804	
672.175	1385.97	15.1965	475.067	402.4	
672.347	1378.21	-71.6697	476.404	403.287	
672.519	1373.52	-24.1151	473.741	403.715	
672.692	1370.46	2.06848	475.069	403.891	
672.864	1366.4	65.4919	478.249	404.209	
673.037	1360.62	11.7339	481.668	405.052	
673.209	1350.45	25.1229	478.534	404.358	
673.381	1345.26	36.4261	476.453	405.456	
673.553	1337.49	24.7442	478.772	404.333	
673.726	1333.61	-28.542	479.969	404.66	
673.898	1327.7	-3.43778	482.309	402.759	
674.07	1324.52	-6.87864	483.711	404.652	
674.242	1313.94	2.74693	482.372	404.588	
674.414	1305.94	55.2386	484.485	405.481	
674.587	1301.82	117.951	484.863	408.332	
674.759	1300.68	3.78264	487.816	403.658	
674.931	1292.79	56.6209	484.496	404.632	
675.103	1283.96	-69.5456	488.283	406.176	
675.275	1279.97	-7.21169	491.593	408.166	
675.447	1274.82	-41.5097	491.044	401.827	
675.619	1267.32	-28.1229	492.036	405.13	
675.791	1263.19	-52.7881	491.003	404.576	
675.963	1257.21	30.2109	487.728	406.799	
676.134	1254.4	2.40451	491.836	407.678	
676.306	1250.12	5.50179	491.069	406.984	
676.478	1240.08	-27.4541	493.199	407.222	
676.65	1234.73	-41.5547	492.946	406.311	
676.822	1232.29	68.6732	497.084	405.703	
676.994	1226	24.7129	494.437	405.585	
677.165	1222.05	-10.6455	498.498	409.557	
677.337	1214.24	49.6992	494.935	409.75	
677.509	1210.76	-23.3167	495.612	409.203	
677.68	1202.89	50.4724	497.922	407.094	
677.852	1200.83	-49.4001	501.401	409.257	
678.024	1192.75	81.1583	494.749	408.57	
678.195	1190.13	-65.0064	501.595	409.325	
678.367	1187.54	51.6744	502.948	408.74	
678.538	1178.77	-32.0033	498.785	406.836	
678.71	1168.44	49.5275	501.746	407.46	
678.881	1167.23	-42.3573	501.636	409.116	
679.053	1163.38	-42.0469	502.891	411.054	
679.224	1157.24	-12.7448	502.821	409.268	
679.396	1149.44	-11.7235	502.149	408.223	
679.567	1145.42	0.689056	503.015	406.594	
679.738	1137.09	21.3929	506.78	408.74	
679.91	1135.15	-61.0461	504.316	408.275	
680.081	1129.85	-46.2781	500.582	408.049	
680.252	1123.07	-22.4221	502.077	406.731	
680.424	1113.82	24.5134	505.434	409.912	
680.595	1112.95	114.97	505.964	408.493	
680.766	1103.83	8.99512	507.71	410.24	
680.937	1096.1	66.351	505.751	405.787	
681.108	1093.18	51.8761	504.16	409.077	
681.28	1090.06	-0.693507	509.201	406.539	
681.451	1083.24	0.69243	505.084	406.136	
681.622	1077.44	65.0467	505.65	409.626	
681.793	1070.38	32.1978	506.212	407.033	
681.964	1065.64	-8.64657	507.12	407.028	
682.135	1063.49	-27.7338	507.052	410.053	
682.306	1055.53	-59.6735	508.351	406.421	
682.477	1053.03	39.6189	509.686	408.554	
682.648	1047.18	21.5118	507.833	405.085	
682.819	1040.29	-7.29292	509.875	408.561	
682.99	1040.04	-18.8287	513.543	407.474	
683.16	1028.39	86.6214	510.725	407.429	
683.331	1024.37	-5.57437	509.047	408.313	
683.502	1017.28	-19.8706	509.817	406.955	
683.673	1014.08	31.0517	511.337	406.32	
683.844	1008.54	19.8704	509.738	402.461	
684.014	1002.4	4.18546	510.149	405.978	
684.185	999.344	6.29689	511.174	404.524	
684.356	991.739	33.9069	509.832	404.639	
684.526	989.894	81.4966	511.347	408.257	
684.697	982.952	21.7111	508.698	403.924	
684.868	978.206	-27.3064	510.793	406.259	
685.038	973.135	-40.3604	509.816	402.352	
685.209	967.328	-52.31	510.106	405.93	
685.379	960.922	101.436	512.105	403.415	
685.55	956.555	-38.6478	507.774	406.728	
685.72	948.789	104.049	508.513	402.823	
685.891	948.521	-9.16126	509.152	403.328	
686.061	940.949	-5.62979	509.696	404.465	
686.232	937.695	26.4324	510.209	403.093	
686.402	932.934	-46.6732	511.491	404.567	
686.572	927.631	174.091	509.988	400.519	
686.743	920.377	4.92862	509.931	402.37	
686.913	916.586	26.5367	507.559	401.436	
687.083	912.174	-86.9585	510.31	399.856	
687.254	908.943	167.425	507.678	399.868	
687.424	900.241	-13.1101	511.905	400.528	
687.594	897.437	-18.4583	507.344	400.309	
687.764	893.471	7.10384	508.377	400.398	
687.934	888.048	29.5667	505.483	402.795	
688.104	882.165	-23.15	509.861	400.877	
688.275	880.103	-15.3515	510.733	400.726	
688.445	873.013	-75.952	509.197	397.42	
688.615	868.472	83.6176	506.718	398.682	
688.785	865.939	27.1955	504.998	400.606	
688.955	859.751	-104.162	505.592	396.275	
689.125	856.182	-86.8659	505.131	397.422	
689.295	851.016	-21.5485	506.694	398.76	
689.465	845.421	100.586	505.183	394.49	
689.635	841.672	18.0086	505.742	397.402	
689.805	834.393	61.6611	505.486	393.27	
689.974	832.362	33.267	503.771	395.027	
690.144	827.082	61.5443	506.927	398.778	
690.314	821.94	-7.25768	500.403	396.134	
690.484	816.437	-62.8699	501.855	395.327	
690.654	815.646	47.3032	503.268	394.203	
690.823	808.871	14.2112	501.664	394.485	
690.993	805.503	16.8316	504.102	394.575	
691.163	805.436	-71.8779	503.505	393.561	
691.332	799.211	30.4661	499.327	393.833	
691.502	793.651	-90.4257	504.499	396.233	
691.672	788.567	-9.94707	499.733	391.052	
691.841	786.456	-46.0726	498.646	391.34	
692.011	781.191	19.2572	503.576	393.612	
692.18	777.731	83.1631	500.82	392.114	
692.35	771.403	83.531	501.208	390.947	
692.519	771.35	-26.0566	497.085	391.668	
692.689	765.514	-32.9109	499.921	393.06	
692.858	761.65	-21.6647	498.56	388.344	
693.027	759.029	7.50214	497.357	389.551	
693.197	755.646	-22.1518	496.976	391.223	
693.366	750.676	73.0992	495.045	387.682	
693.536	746.502	-15.4711	496.973	390.235	
693.705	739.329	-65.9496	492.2	385.5	
693.874	737.404	-27.619	496.09	384.731	
694.043	731.374	16.698	495.216	384.984	
694.213	728.099	-9.102	494.393	387.672	
694.382	726.791	56.8676	493.474	388.339	
694.551	722.328	2.29451	495.735	383.89	
694.72	717.013	-5.36847	494.032	385.691	
694.889	714.247	35.7285	493.665	385.276	
695.058	709.637	61.865	495.94	384.996	
695.228	704.777	-42.5403	492.972	385.436	
695.397	699.884	-15.1297	493.101	381.012	
695.566	699.816	-3.89232	486.421	383.067	
695.735	695.664	-8.58922	488.149	384.922	
695.904	689.084	24.2371	490.707	384.116	
696.073	684.838	-3.53094	487.759	382.014	
696.242	683.855	-6.67728	485.448	382.121	
696.41	680.596	88.0609	486.173	381.763	
696.579	676.296	43.9256	485.957	379.823	
696.748	673.073	-27.4149	483.647	380.689	
696.917	670.942	-35.0125	483.777	380.357	
697.086	665.671	-32.7511	482.214	380.339	
697.255	661.587	-119.19	483.865	379.367	
697.423	656.725	8.84121	483.997	379.296	
697.592	654.572	0.805498	481.707	378.522	
697.761	649.796	33.1154	478.714	380.094	
697.929	649.069	-18.6638	482.531	380.097	
698.098	643.819	1.22065	479.409	373.809	
698.267	638.484	-77.1343	478.129	375.937	
698.435	637.978	23.3413	478.33	375.082	
698.604	633.465	70.6067	478.429	372.847	
698.772	627.589	52.1929	475.912	372.101	
698.941	627.554	80.4324	473.608	376.924	
699.109	623.574	-38.5321	474.053	371.522	
699.278	620.78	82.7008	474.182	370.203	
699.446	613.413	-35.4016	471.627	372.336	
699.615	613.067	38.4132	475.7	371.818	
699.783	609.513	14.661	472.059	369.963	
699.952	603.408	101.198	470.79	368.864	
700.12	600.091	-17.6631	465.622	367.606	
700.288	595.504	84.8596	469.512	367.372	
700.457	595.364	-4.23126	469.402	366.667	
700.625	590.971	122.254	466.665	367.051	
700.793	585.663	75.1078	465.465	363.85	
700.961	585.946	14.4829	460.379	366.893	
701.13	579.899	100.045	461.354	365.3	
701.298	579.295	-13.2915	461.615	360.943	
701.466	575.98	44.749	459.199	361.44	
701.634	571.674	52.5159	457.832	359.286	
701.802	565.11	17.7817	456.014	364.88	
701.97	563.548	-64.7517	458.987	362.366	
702.138	562.525	-8.29696	455.477	359.145	
702.306	557.89	24.5084	459.107	359.614	
702.474	554.145	-11.8546	452.33	356.996	
702.642	551.163	-33.9473	454.388	358.924	
702.81	548.892	-37.4866	452.394	356.37	
702.978	545.791	3.53703	452.1	357.396	
703.146	544.92	-28.8774	446.856	356.373	
703.314	541.142	-20.0605	446.998	355.611	
703.482	538.321	61.7669	445.679	354.223	
703.65	531.941	-54.1154	446.51	349.013	
703.818	531.757	180.327	448.01	356.133	
703.985	529.309	-4.06272	449.379	355.846	
704.153	524.234	26.7448	444.193	351.266	
704.321	522.503	-63.158	444.466	345.957	
704.488	518.242	46.1119	443.085	349.157	
704.656	516.108	58.5519	441.591	347.359	
704.824	512.782	81.2701	443.006	352.706	
704.991	510.538	11.074	439.305	346.868	
705.159	509.92	54.2025	437.162	348.832	
705.327	505.386	-17.149	438.496	343.821	
705.494	501.914	44.6319	433.568	344.521	
705.662	499.069	-8.39351	438.415	347.423	
705.829	495.981	5.608	432.9	341.739	
705.997	492.473	12.1883	431.713	341.769	
706.164	488.828	-11.7642	430.226	338.999	
706.332	485.419	84.8272	432.141	342.915	
706.499	484.388	93.9288	426.832	340.241	
706.666	482.559	73.6259	424.921	338.692	
706.834	477.479	50.1373	422.086	336.136	
707.001	474.285	-59.8398	426.126	335.872	
707.168	471.518	23.6014	426.078	338.223	
707.336	472.43	-59.1835	425.384	336.318	
707.503	468.389	88.0704	420.915	334.888	
707.67	468.787	32.772	419.847	332.52	
707.837	461.639	130.7	420.442	331.905	
708.004	459.159	-16.7106	418.968	329.517	
708.172	456.741	246.487	415.4	334.092	
708.339	456.491	-87.1506	416.266	326.046	
708.506	452.424	-20.9312	414.133	331.039	
708.673	451.645	74.3379	414.652	326.245	
708.84	447.013	106.3	407.588	326.827	
709.007	444.848	-26.2739	410.766	327.43	
709.174	442.741	2.53778	406.512	327.333	
709.341	440.214	-98.6684	406.117	327.25	
709.508	440.112	96.8326	404.426	321.904	
709.675	436.438	-10.297	407.236	328.052	
709.842	433.2	-14.46	400.196	325.762	
710.009	429.467	-6.23093	404.553	322.651	
710.175	429.293	-15.1277	399.806	318.36	
710.342	429.718	38.2703	400.36	320.534	
710.509	424.241	17.3727	399.003	321.686	
710.676	422.752	-26.9707	401.278	321.071	
710.843	421.547	-5.85378	399.799	322.671	
711.009	420.026	77.4423	402.604	318.717	
711.176	416.882	38.2322	398.243	318.548	
711.343	412.096	21.0033	393.969	315.449	
711.509	414.155	-134.762	394.6	313.887	
711.676	406.669	16.3129	393.028	312.551	
711.843	408.095	-73.4852	389.925	318.195	
712.009	402.817	20.9176	391.823	317.07	
712.176	401.821	86.261	387.175	312.232	
712.342	402.49	-11.0894	386.455	310.714	
712.509	397.705	-41.7266	383.903	313.246	
712.675	395.848	38.1248	389.419	311.412	
712.842	394.36	-52.9615	383.358	309.137	
713.008	390.215	34.3737	382.904	304.953	
713.174	391.471	-46.6538	379.944	304.995	
713.341	385.299	-124.515	382.162	307.833	
713.507	385.502	18.9388	379.549	307.926	
713.673	382.02	-47.9026	376.314	306.558	
713.84	380.018	-4.63691	376.61	301.183	
714.006	378.026	-72.3606	376.824	301.779	
714.172	377.042	61.5488	371.888	304.321	
714.339	373.814	41.1548	368.715	302.946	
714.505	372.33	68.8093	371.373	299.479	
714.671	367.613	-50.4848	364.144	294.336	
714.837	368.112	68.2021	367.565	295.096	
715.003	367.342	-140.612	371.369	294.284	
715.169	364.823	21.1509	365.572	295.714	
715.335	361.553	102.69	366.617	295.402	
715.501	358.165	-71.0766	365.954	297.737	
715.667	358.996	70.6056	364.759	290.183	
715.833	355.024	79.7904	361.32	287.55	
715.999	356.358	132.452	365.417	289.278	
716.165	351.082	92.1722	357.298	289.58	
716.331	356.401	44.148	354.349	286.361	
716.497	345.904	92.1782	359.148	291.593	
716.663	347.545	-8.29799	355.894	283.808	
716.829	343.702	36.6297	355.771	288.552	
716.995	348.509	88.8161	358.644	284.523	
717.161	341.797	217.638	348.769	287.952	
717.326	341.199	-23.5121	350.003	283.037	
717.492	338.501	-55.3818	347.886	283.229	
717.658	335.379	62.8373	350.672	276.722	
717.823	336.026	28.0589	346.822	283.801	
717.989	333.327	30.2036	342.571	279.882	
718.155	327.256	3.37349	348.383	282.442	
718.32	328.327	-128.777	341.336	278.258	
718.486	326.179	-68.5077	338.876	279.457	
718.651	324.085	140.273	341.541	281.032	
718.817	322.741	-91.4674	333.274	277.47	
718.983	320.812	72.645	336.235	276.116	
719.148	321.153	202.076	335.62	275.677	
719.314	318.934	26.9406	333.453	275.366	
719.479	317.679	-54.8607	331.962	271.401	
719.644	315.013	138.516	327.812	271.018	
719.81	311.1	130.49	327.864	269.035	
719.975	313.383	71.8468	326.141	267.164	
720.141	308.642	-68.854	324.283	268.809	
720.306	307.005	41.9204	328.764	268.752	
720.471	304.833	-21.4484	322.736	265.59	
720.636	302.44	65.489	320.866	262.025	
720.802	300.158	117.255	322.02	262.792	
720.967	300.625	112.043	321.252	259.88	
721.132	298.979	13.6444	320.678	264.534	
721.297	297.355	87.9116	322.664	258.807	
721.462	298.725	54.689	315.615	261.285	
721.628	292.586	-74.919	317.425	261.454	
721.793	293.14	74.7012	312.904	258.539	
721.958	291.381	-165.957	314.307	254.343	
722.123	291.049	-67.8436	309.22	260.362	
722.288	288.748	-22.2126	306.671	251.245	
722.453	289.42	-38.3783	309.137	253.328	
722.618	284.517	284.886	310.39	254.429	
722.783	284.44	-0.809446	309.668	253.6	
722.948	282.645	-66.7998	310.076	249.685	
723.112	278.278	-16.3558	300.325	246.733	
723.277	280.609	-42.0024	302.845	247.885	
723.442	277.984	-62.2092	303.133	247.947	
723.607	275.528	-124.847	300.098	239.894	
723.772	272.013	84.6062	297.864	242.018	
723.937	272.584	131.85	296.412	243.169	
724.101	269.217	9.32133	294.193	247.699	
724.266	269.7	-49.2928	294.714	245.648	
724.431	267.666	187.992	295.466	243.056	
724.595	270.475	-56.79	297.213	244.094	
724.76	261.742	-38.8418	290.652	239.611	
724.925	262.734	-209.374	293.152	237.146	
725.089	263.618	-15.7845	293.123	241.152	
725.254	261.787	-109.751	296.486	237.952	
725.418	257.551	93.5203	285.531	236.889	
725.583	259.923	88.5961	286.319	235.701	
725.747	256.196	18.716	285.607	229.399	
725.912	254.18	131.89	281.395	226.007	
726.076	254.851	77.638	283.969	233.053	
726.241	252.051	-141.896	284.605	230.076	
726.405	251.087	177.293	279.472	233.521	
726.57	250.171	-157.793	278.689	226.578	
726.734	248.584	66.9667	280.373	231.448	
726.898	248.035	-111.47	284.922	229.463	
727.062	247.474	680.706	262.591	226.2	
727.227	245.312	29.7777	275.871	224.939	
727.391	243.641	-3.74774	270.756	226.283	
727.555	244.894	-23.4752	275.324	225.556	
727.719	239.618	-93.2404	271.176	226.722	
727.884	238.427	-132.931	270.588	222.946	
728.048	235.235	-137.05	267.118	223.956	
728.212	238.729	-89.2908	270.082	218.661	
728.376	237.406	257.428	269.638	223.937	
728.54	233.404	-87.8896	268.388	218.584	
728.704	229.27	2.08616e-06	259.582	218.611	
728.868	233.234	-35.6185	259.931	217.959	
729.032	229.406	135.423	260.96	216.141	
729.196	227.297	62.9229	265.077	219.191	
729.36	226.16	237.461	260.393	218.199	
729.524	228.75	-107.681	258.499	214.069	
729.688	224.401	-160.286	258.295	215.813	
729.852	223.757	-60.6387	261.086	213.422	
730.015	222.225	-9.82427	255.804	216.245	
730.179	223.108	-59.8486	250.135	209.516	
730.343	219.663	308.538	257.647	212.368	
730.507	217.977	57.1084	255.143	210.31	
730.671	220.137	-35.7914	249.778	211.932	
730.834	217.319	-138.647	255.005	202.517	
730.998	213.474	-111.678	244.968	212.156	
731.162	215.099	361.935	250.406	205.057	
731.325	214.776	-76.5495	251.076	208.195	
731.489	214.9	170.871	248.863	208.728	
731.652	215.107	-56.5132	245.783	203.547	
731.816	209.318	-43.8112	245.727	209.285	
731.98	206.975	-19.8044	239.388	200.704	
732.143	210.802	-53.837	245.636	203.364	
732.307	204.129	148.753	242.084	199.904	
732.47	205.139	-373.883	237.601	194.114	
732.633	203.235	165.605	242.454	203.547	
732.797	205.705	61.9232	239.849	201.563	
732.96	203.412	155.936	233.527	199.492	
733.124	198.576	-147.536	237.467	195.93	
733.287	201.605	80.7617	236.316	198.295	
733.45	199.405	19.8571	241.727	197.115	
733.614	197.244	138.568	230.58	198.215	
733.777	195.579	-27.8772	235.151	191.742	
733.94	196.416	62.7815	236.583	193.467	
734.103	195.656	89.5041	231.623	189.921	
734.266	194.36	76.905	233.278	193.794	
734.43	197.597	-8.96627	225.472	191.998	
734.593	194.04	-70	222.767	190.633	
734.756	190.588	13.98	223.527	192.904	
734.919	189.682	92.6884	225.668	193.177	
735.082	187.43	-14.937	222.801	191.333	
735.245	188.485	107.399	218.106	183.5	
735.408	185.679	217.694	224.071	194.247	
735.571	183.941	85.7954	223.806	188.357	
735.734	184.073	-82.4861	220.877	185.431	
735.897	183.279	-95.2512	219.111	186.236	
736.06	181.018	102.84	217.532	179.165	
736.223	176.159	112.669	217.985	185.634	
736.386	177.486	-39.5468	217.534	181.941	
736.549	180.265	-229.084	216.418	183.57	
736.711	179.1	150.827	215.87	178.475	
736.874	173.588	-31.3831	216.687	182.885	
737.037	174.675	41.2944	216.815	178.143	
737.2	172.593	-160.807	210.769	179.196	
737.362	175.21	-178.766	215.75	178.629	
737.525	171.784	104.995	210.126	178.304	
737.688	169.935	167.935	207.217	176.413	
737.85	170.066	-24.3871	205.43	178.897	
738.013	170.923	131.688	209.442	175.745	
738.176	170.175	-192.326	199.594	178.074	
738.338	165.832	-123.181	207.804	177.265	
738.501	168.377	303.182	206.022	171.566	
738.663	167.462	-111.896	203.211	169.164	
738.826	161.061	43.0236	202.912	172.381	
738.988	164.911	-26.7279	201.7	169.945	
739.151	162.261	35.3907	198.787	170.283	
739.313	161.077	2.85058	201.067	166.987	
739.475	160.974	25.5905	194.911	169.194	
739.638	160.191	30.1713	199.099	168.739	
739.8	159.829	65.0479	197.764	164.581	
739.962	159.624	-66.4089	200.692	170.262	
740.125	158.173	320.343	195.257	162.319	
740.287	158.607	-13.0372	197.675	167.565	
740.449	156.517	-8.32835	200.355	171.422	
740.611	154.436	294.452	192.65	164.275	
740.774	156.51	-261.525	190.053	168.198	
740.936	151.901	-26.397	189.7	162.15	
741.098	154.169	-103.512	192.924	163.977	
741.26	151.852	-0.908424	193.464	158.035	
741.422	150.941	239.359	187.165	156.157	
741.584	147.904	471.053	188.987	162.035	
741.746	145.494	-145.728	188.966	161.98	
741.908	146.922	-3.58741	190.264	158.456	
742.07	142.67	145.655	190.483	159.684	
742.232	148.992	-19.5971	188.198	156.07	
742.394	141.46	-72.4985	183.209	158.1	
742.556	144.89	229.468	182.572	153.852	
742.718	142.217	-87.7014	181.711	153.062	
742.88	139.634	-79.3175	180.629	153.492	
743.042	138.588	259.182	179.399	150.909	
743.203	141.332	44.1771	176.841	146.985	
743.365	137.984	-48.6349	178.722	152.551	
743.527	136.112	64.5775	175.501	153.689	
743.689	134.891	36.8462	174.777	152.212	
743.85	136.17	-108.179	176.238	149.492	
744.012	134.433	133.941	174.886	150.528	
744.174	131.883	-240.033	176.875	147.519	
744.335	131.322	167.3	169.085	149.313	
744.497	134.662	60.3039	171.989	144.294	
744.658	130.156	209.767	172.298	145.994	
744.82	130.541	4.14786	172.949	144.633	
744.982	130.532	141.451	170.463	139.195	
745.143	127.448	-3.57628e-07	170.653	145.303	
745.305	129.686	-66.6617	166.001	147.621	
745.466	127.993	-137.609	168.583	143.136	
745.627	125.44	-38.3633	165.278	139.811	
745.789	125.767	-105.023	164.731	143.347	
745.95	123.728	-24.4008	170.372	140.982	
746.112	124.637	120.48	162.118	139.639	
746.273	122.73	-12.1083	159.975	139.256	
746.434	120.88	178.285	165.366	139.721	
746.596	122.672	226.427	162.176	137.553	
746.757	118.42	-9.57318	159.138	136.588	
746.918	121.987	114.916	157.308	140.177	
747.079	120.081	-190.768	158.261	137.522	
747.24	118.076	100.44	161.8	137.969	
747.402	119.76	-62.3501	162.679	136.634	
747.563	117.36	-46.3719	156.501	139.525	
747.724	119.215	167.313	155.758	135.013	
747.885	114.402	47.609	155.268	134.663	
748.046	114.5	-76.023	154.59	130.853	
748.207	115.806	-39.6435	151.324	137.073	
748.368	118.646	117.532	153.302	135.673	
748.529	115.265	167.757	156.212	133.845	
748.69	111.372	100.017	152.502	131.473	
748.851	111.091	-79.6898	152.213	130.094	
749.012	112.574	-78.0169	146.886	124.552	
749.173	112.741	-110.426	149.271	131.197	
749.334	108.188	-103.692	150.371	129.077	
749.494	109.482	-21.8903	146.856	127.884	
749.655	110.754	-89.3903	149.92	125.382	
749.816	109.774	74.1208	147.408	129.389	
749.977	108.07	-43.2099	148.478	123.695	
750.137	107.196	-7.43484	146.308	129.009	
750.298	109.788	-50.4842	147.746	124.929	
750.459	106.163	25.861	145.28	121.98	
750.62	107.03	-151.973	146.15	123.87	
750.78	104.422	38.9359	142.603	123.258	
750.941	104.781	58.808	144.065	123.041	
751.101	105.004	49.7233	139.342	121.793	
751.262	103.331	-40.7618	142.516	117.913	
751.422	102.517	143.518	139.414	124.018	
751.583	101.523	255.002	139.503	116.997	
751.743	102.514	-23.8977	138.119	124.457	
751.904	100.561	-93.565	137.593	117.585	
752.064	98.9765	56.9825	137.609	117.749	
752.225	98.9691	7.18521	139.537	116.736	
752.385	98.3721	190.499	135.403	119.265	
752.545	98.3788	104.309	134.134	112.606	
752.706	97.5953	231.147	136.281	116.449	
752.866	96.8999	52.6321	130.935	115.715	
753.026	94.7577	150.748	133.573	117.55	
753.187	94.8739	-109.841	135.522	113.79	
753.347	94.9062	-1.41503	133.225	114.83	
753.507	96.1332	129.489	132.607	111.379	
753.667	92.8395	106.219	127.43	114.58	
753.827	92.7974	-121.584	128.378	109.543	
753.988	90.7521	134.016	131.233	111.633	
754.148	91.1854	-6.30121	126.37	110.453	
754.308	92.6175	-99.0487	129.842	112.823	
754.468	90.4563	-54.3323	126.288	109.059	
754.628	91.31	76.4508	125.926	108.922	
754.788	90.3771	152.664	125.559	110.385	
754.948	89.0223	107.281	124.879	107.899	
755.108	87.0647	14.5547	127.494	107.303	
755.268	89.2208	94.223	121.982	107.386	
755.428	88.7419	-40.1109	122.343	109.249	
755.587	87.9137	19.9741	122.389	109.394	
755.747	87.102	98.4943	120.484	104.046	
755.907	88.3075	192.421	122.224	104.356	
756.067	87.0181	-7.55604	123.292	102.959	
756.227	84.6015	23.9645	119.891	106.106	
756.386	83.0476	-15.7677	122.165	109.185	
756.546	85.0654	65.0138	117.609	99.6787	
756.706	83.9144	-51.2423	117.985	100.95	
756.866	83.99	44.3561	119.657	104.553	
757.025	83.7093	-82.5899	119.485	104.696	
757.185	82.5018	66.8749	118.387	103.511	
757.344	82.6464	-126.235	116.382	97.9583	
757.504	82.6842	53.1337	118.947	102.78	
757.664	82.0058	21.8028	116.645	101.292	
757.823	80.9951	-97.2649	114.351	98.6162	
757.983	79.3631	-39.4571	114.149	97.8671	
758.142	76.8823	110.357	113.968	97.8002	
758.302	78.3287	211.553	110.699	96.4598	
758.461	77.234	89.5231	113.025	101.089	
758.62	78.1806	-15.6225	113.556	96.1669	
758.78	77.3608	-48.8338	109.623	95.9674	
758.939	75.3866	-153.988	111.092	94.3424	
759.098	77.3443	135.454	110.025	95.8474	
759.258	77.0326	-62.0904	112.636	94.4135	
759.417	76.435	94.5977	108.585	100.071	
759.576	76.2495	33.1108	109.635	97.9224	
759.735	75.1248	-14.8441	108.902	94.6425	
759.895	75.6457	42.4522	108.943	90.7937	
760.054	73.4694	58.7053	106.538	90.2533	
760.213	73.2314	-115.941	107.501	93.211	
760.372	71.3716	167.52	105.065	89.979	
760.531	72.6458	-174.312	106.265	90.427	
760.69	74.0854	126.221	103.609	96.6791	
760.849	72.1517	24.2255	109.302	88.0373	
761.008	71.1742	116.535	105.326	90.1926	
761.167	69.6366	-106.305	101.438	87.7578	
761.326	69.2653	143.882	103.111	88.8127	
761.485	69.9744	102.665	101.733	88.2696	
761.644	70.2892	84.4985	102.647	87.4143	
761.803	69.9587	-10.1096	105.217	88.8166	
761.962	70.373	64.835	101.35	89.1932	
762.121	68.9675	51.3674	100.387	87.1399	
762.28	65.6037	40.4047	97.7703	86.5019	
762.439	67.269	-63.385	102.328	85.9653	
762.597	68.2193	-55.2765	99.3405	87.2965	
762.756	67.0843	-112.775	100.93	87.2893	
762.915	68.4107	39.2621	96.1243	80.9159	
763.073	68.2517	-29.0807	98.419	82.1428	
763.232	65.9953	55.6178	94.1252	80.9217	
763.391	65.2277	-39.3183	100.601	82.2973	
763.549	63.0781	122.976	95.0792	83.7101	
763.708	67.0894	-109.57	95.7727	79.5754	
763.867	62.6588	122.327	90.7487	80.6001	
764.025	63.2203	-30.0529	94.0928	79.1575	
764.184	64.4685	135.277	92.2982	82.2777	
764.342	63.5734	69.2208	96.7811	79.693	
764.501	64.2486	-109.07	93.9468	80.456	
764.659	61.4976	88.6191	93.7348	77.9345	
764.818	63.4261	77.1641	94.4158	81.3714	
764.976	63.3502	-9.62979	92.3038	75.9332	
765.134	61.064	162.368	95.0069	74.7398	
765.293	60.7247	106.244	88.2792	77.2409	
765.451	59.5682	113.701	91.0394	79.2995	
765.609	61.1716	34.5993	89.5293	78.8727	
765.768	60.6908	-25.0443	87.7479	79.7709	
765.926	62.4387	26.9968	85.9651	77.843	
766.084	59.7085	-57.0109	87.6856	78.2764	
766.242	59.7322	18.0838	90.8734	76.2209	
766.4	57.9118	-167.951	87.6645	77.1182	
766.559	59.5208	4.19259	88.5102	74.302	
766.717	57.5502	112.156	87.4165	80.4067	
766.875	59.0452	-6.30227	87.5455	75.2678	
767.033	58.4452	-68.8748	85.8967	76.1512	
767.191	55.961	122.327	87.5036	72.6462	
767.349	53.8437	112.732	85.3899	77.2638	
767.507	55.4998	-120.252	87.9348	74.7778	
767.665	57.8717	40.3855	79.1697	75.0131	
767.823	57.3626	28.3833	83.3806	73.2572	
767.981	57.2237	150.888	84.0752	71.5961	
768.139	56.1195	84.6844	83.7925	71.7896	
768.297	56.0127	10.7717	82.7744	72.9602	
768.454	53.32	-121.149	83.4425	69.5354	
768.612	53.9577	-64.0811	82.955	74.5068	
768.77	55.628	98.6414	81.7979	69.7498	
768.928	54.1052	-10.1185	81.9167	69.0999	
769.086	53.3855	97.6035	80.9073	67.1223	
769.243	52.4771	40.6349	82.1695	69.5437	
769.401	53.5499	-74.2334	78.2313	66.5868	
769.559	55.9046	26.1985	79.9199	68.6157	
769.716	52.8855	-63.5502	80.5651	69.3647	
769.874	51.5326	-148.764	78.2711	69.1352	
770.031	53.7693	-81.2247	79.7222	68.1117	
770.189	52.6493	55.1186	77.0926	67.8327	
770.347	50.8608	-135.865	80.5	68.1442	
770.504	52.0911	50.9828	80.3361	67.5781	
770.662	52.0289	-113.655	77.7709	66.3806	
770.819	48.9411	2.23339	71.816	66.158	
770.977	52.8587	-2.98384	79.6536	65.7788	
771.134	48.8583	85.0098	71.6618	66.243	
771.291	52.2967	-59.3427	78.5076	61.3308	
771.449	50.7604	206.069	76.1331	66.5416	
771.606	47.5901	-53.2781	73.1936	64.1889	
771.763	48.1609	-67.9172	75.3479	63.3743	
771.921	48.3469	25.7003	72.5052	61.4691	
772.078	50.204	173.143	71.7676	61.0816	
772.235	48.9997	-148.806	73.4616	62.0228	
772.393	47.736	-114.889	68.7204	62.1771	
772.55	49.2632	-213.459	76.4639	62.5383	
772.707	47.4559	45.0869	71.2373	63.3407	
772.864	44.2421	-72.2508	71.1133	63.1708	
773.021	46.8173	272.14	70.1106	60.5781	
773.178	45.9034	41.6183	71.306	60.1564	
773.335	45.599	37.7679	68.3728	58.7124	
773.492	44.1604	-117.679	70.2871	60.3774	
773.649	46.6738	98.4646	72.1144	64.3612	
773.806	45.6309	255.229	71.3969	61.6222	
773.963	46.5025	-3.12622	66.7656	58.9501	
774.12	43.2272	7.03517	70.7477	59.5957	
774.277	43.9124	19.6318	67.8108	57.7593	
774.434	47.0372	-26.0266	66.7754	57.8896	
774.591	41.6398	-61.8885	67.4955	57.6568	
774.748	43.9056	189.029	66.4674	55.1892	
774.905	42.7932	-35.8202	70.7914	60.974	
775.061	44.1198	-6.40114	64.8222	56.6607	
775.218	41.0281	129.019	69.2617	58.5101	
775.375	42.0123	-8.04217	66.3586	57.5122	
775.532	41.8327	9.71724	64.0852	55.0158	
775.688	43.9212	21.8554	64.8268	56.0307	
775.845	44.4296	-31.8053	66.2638	61.86	
776.002	41.8006	40.8369	63.9505	53.7685	
776.158	38.5195	20.5503	61.1358	57.0258	
776.315	41.6803	164.916	64.4349	52.62	
776.471	43.1497	252.27	60.7592	55.0982	
776.628	44.0245	-71.1139	64.0797	57.7952	
776.784	41.3152	132.175	62.5519	52.6873	
776.941	40.7225	-162.39	65.3169	54.602	
777.097	44.2374	20.1079	62.9098	55.0342	
777.254	40.686	-57.907	63.4907	51.6855	
777.41	38.4322	102.339	57.8851	56.1936	
777.567	38.6072	175.18	63.7417	54.6019	
777.723	42.3641	17.8214	61.7017	55.8178	
777.879	39.9545	-63.1489	62.5458	53.045	
778.036	39.2017	185.737	57.0564	55.0593	
778.192	41.4457	435.189	62.3428	50.121	
778.348	38.7294	-15.5193	59.2781	52.668	
778.505	39.8925	-129.297	60.4192	50.9949	
778.661	36.0033	-133.603	61.9836	54.2913	
778.817	41.5969	324.245	56.6879	52.0063	
778.973	36.6711	20.8754	58.0626	52.0899	
779.129	38.5221	11.3609	58.6862	52.627	
779.285	36.2743	-121.442	53.2468	51.6041	
779.442	40.892	120.946	55.0877	47.0247	
779.598	38.4605	181.116	62.6625	51.6535	
779.754	35.6054	43.4429	58.8518	51.9955	
779.91	35.6722	57.1327	57.4957	48.5092	
